# power spectrum of delta
# redshift z=2.885851
# k              Pk             sigma(k)       sigma(Pk)      count
  3.132125e-02   1.439198e-03   4.792454e-03   2.673647e-04   18
  6.745391e-02   1.637580e-02   1.159167e-02   1.645156e-03   152
  1.090113e-01   3.774863e-02   1.224347e-02   1.730377e-03   416
  1.497134e-01   6.193180e-02   1.165022e-02   2.320900e-03   770
  1.923472e-01   8.745359e-02   1.247860e-02   2.478276e-03   1364
  2.350444e-01   1.086844e-01   1.221820e-02   2.448733e-03   1976
  2.775930e-01   1.356439e-01   1.245022e-02   2.625145e-03   2792
  3.193857e-01   1.622486e-01   1.188722e-02   2.699317e-03   3578
  3.615292e-01   1.840240e-01   1.219808e-02   2.690238e-03   4724
  4.045273e-01   2.130625e-01   1.253838e-02   2.728860e-03   6032
  4.469941e-01   2.314868e-01   1.206640e-02   2.880142e-03   7072
  4.890810e-01   2.649711e-01   1.222555e-02   2.919727e-03   8634
  5.318886e-01   2.966918e-01   1.238102e-02   2.995109e-03   10336
  5.746708e-01   3.249827e-01   1.232804e-02   2.909597e-03   11940
  6.167490e-01   3.516063e-01   1.208586e-02   3.046609e-03   13490
  6.588740e-01   3.892577e-01   1.221778e-02   3.077151e-03   15656
  7.016595e-01   4.137887e-01   1.241043e-02   2.995205e-03   18008
  7.443680e-01   4.413898e-01   1.227786e-02   3.194141e-03   19964
  7.867827e-01   4.797387e-01   1.226437e-02   3.279369e-03   22354
  8.291404e-01   5.026948e-01   1.212327e-02   3.199274e-03   24648
  8.716536e-01   5.318427e-01   1.233244e-02   3.139448e-03   27592
  9.142068e-01   5.774287e-01   1.230127e-02   3.345808e-03   30152
  9.566749e-01   6.043059e-01   1.227622e-02   3.337934e-03   33046
  9.991233e-01   6.460053e-01   1.221538e-02   3.383993e-03   35992
  1.041693e+00   6.851052e-01   1.229906e-02   3.413327e-03   39304
  1.084289e+00   7.134338e-01   1.232858e-02   3.470344e-03   42608
  1.126820e+00   7.607071e-01   1.223307e-02   3.575328e-03   45758
  1.169340e+00   7.841940e-01   1.228914e-02   3.505489e-03   49536
  1.211695e+00   8.309681e-01   1.215683e-02   3.620539e-03   52488
  1.254054e+00   8.769017e-01   1.233851e-02   3.666229e-03   57034
  1.296605e+00   9.151254e-01   1.224458e-02   3.699917e-03   60648
  1.339187e+00   9.563014e-01   1.230532e-02   3.743366e-03   65044
  1.381689e+00   1.000783e+00   1.223104e-02   3.799398e-03   68720
  1.424202e+00   1.048499e+00   1.231312e-02   3.857014e-03   73538
  1.466870e+00   1.088489e+00   1.230776e-02   3.881442e-03   78080
  1.509304e+00   1.141153e+00   1.215944e-02   3.999007e-03   81572
  1.551677e+00   1.191327e+00   1.232495e-02   4.051960e-03   87248
  1.594353e+00   1.230500e+00   1.233837e-02   4.085676e-03   92266
  1.636929e+00   1.277177e+00   1.225268e-02   4.118004e-03   96696
  1.679216e+00   1.332904e+00   1.215041e-02   4.178115e-03   100904
  1.721516e+00   1.384370e+00   1.226207e-02   4.237031e-03   107036
  1.764192e+00   1.438962e+00   1.235795e-02   4.285462e-03   113362
  1.806923e+00   1.492659e+00   1.228837e-02   4.341767e-03   118176
  1.849351e+00   1.547314e+00   1.221864e-02   4.419860e-03   122944
  1.891857e+00   1.593735e+00   1.233203e-02   4.417210e-03   129902
  1.934420e+00   1.645140e+00   1.224691e-02   4.494096e-03   134944
  1.976863e+00   1.706402e+00   1.225992e-02   4.535158e-03   140952
  2.019285e+00   1.762372e+00   1.225865e-02   4.601132e-03   147072
  2.061737e+00   1.822593e+00   1.224320e-02   4.637320e-03   153382
  2.104357e+00   1.884825e+00   1.233049e-02   4.659043e-03   160952
  2.147003e+00   1.945242e+00   1.228118e-02   4.765790e-03   166640
  2.189431e+00   1.991233e+00   1.222861e-02   4.790981e-03   172448
  2.231915e+00   2.058581e+00   1.231031e-02   4.865548e-03   180594
  2.274471e+00   2.109261e+00   1.224284e-02   4.868520e-03   186556
  2.316888e+00   2.184276e+00   1.225358e-02   4.976405e-03   193528
  2.359297e+00   2.253317e+00   1.224273e-02   5.021165e-03   200626
  2.401844e+00   2.308835e+00   1.230642e-02   5.040672e-03   209256
  2.444460e+00   2.377902e+00   1.227865e-02   5.106957e-03   216020
  2.487004e+00   2.441590e+00   1.230299e-02   5.139381e-03   223768
  2.529444e+00   2.510226e+00   1.222313e-02   5.250477e-03   230234
  2.571955e+00   2.568828e+00   1.229969e-02   5.218161e-03   239800
  2.614499e+00   2.651292e+00   1.225221e-02   5.343750e-03   246568
  2.656957e+00   2.733117e+00   1.227331e-02   5.398666e-03   254828
  2.699414e+00   2.774623e+00   1.225769e-02   5.403931e-03   263074
  2.741981e+00   2.849657e+00   1.228604e-02   5.466973e-03   272312
  2.784554e+00   2.941403e+00   1.228079e-02   5.574808e-03   280376
  2.827093e+00   3.013667e+00   1.228600e-02   5.616257e-03   288884
  2.869605e+00   3.090121e+00   1.227401e-02   5.679704e-03   297602
  2.912071e+00   3.157645e+00   1.223046e-02   5.701027e-03   305520
  2.954561e+00   3.235028e+00   1.230079e-02   5.748511e-03   315976
  2.996984e+00   3.307476e+00   1.221089e-02   5.812354e-03   322778
  3.039488e+00   3.375831e+00   1.232008e-02   5.803505e-03   335372
  3.082114e+00   3.457966e+00   1.227327e-02   5.902852e-03   343464
  3.124654e+00   3.544497e+00   1.228282e-02   5.950839e-03   352912
  3.167174e+00   3.598062e+00   1.228199e-02   5.955063e-03   362666
  3.209689e+00   3.701267e+00   1.225476e-02   6.083621e-03   371884
  3.252186e+00   3.778432e+00   1.227971e-02   6.139969e-03   382280
  3.294633e+00   3.836210e+00   1.224302e-02   6.128169e-03   390888
  3.337059e+00   3.934681e+00   1.226867e-02   6.220659e-03   402234
  3.379565e+00   4.039966e+00   1.225933e-02   6.276851e-03   412576
  3.422105e+00   4.129602e+00   1.228715e-02   6.349980e-03   423732
  3.464636e+00   4.205149e+00   1.227257e-02   6.369051e-03   433624
  3.507180e+00   4.259365e+00   1.228881e-02   6.378688e-03   445154
  3.549739e+00   4.355703e+00   1.227656e-02   6.442467e-03   455584
  3.592238e+00   4.439535e+00   1.225887e-02   6.499633e-03   465588
  3.634685e+00   4.529266e+00   1.226065e-02   6.544557e-03   476762
  3.677219e+00   4.617655e+00   1.229242e-02   6.595153e-03   489552
  3.719789e+00   4.712985e+00   1.227853e-02   6.660007e-03   500328
  3.762251e+00   4.809193e+00   1.223705e-02   6.739640e-03   509852
  3.804741e+00   4.885215e+00   1.229735e-02   6.745999e-03   524234
  3.847275e+00   4.982952e+00   1.224781e-02   6.818931e-03   534104
  3.889779e+00   5.067145e+00   1.228211e-02   6.833923e-03   547048
  3.932320e+00   5.148379e+00   1.229545e-02   6.895358e-03   559328
  3.974872e+00   5.267100e+00   1.228346e-02   6.968056e-03   571326
  4.017355e+00   5.339613e+00   1.224147e-02   6.989626e-03   581920
  4.059804e+00   5.442586e+00   1.225835e-02   7.079501e-03   594832
  4.102282e+00   5.522964e+00   1.227222e-02   7.054519e-03   608048
  4.144825e+00   5.615597e+00   1.228101e-02   7.123232e-03   621526
  4.187356e+00   5.702148e+00   1.226445e-02   7.175045e-03   633240
  4.229822e+00   5.807060e+00   1.225981e-02   7.233297e-03   645472
  4.272346e+00   5.899243e+00   1.230137e-02   7.253341e-03   660906
  4.314903e+00   5.979357e+00   1.227030e-02   7.280638e-03   672856
  4.357425e+00   6.076798e+00   1.226838e-02   7.346923e-03   685980
  4.399921e+00   6.164810e+00   1.227191e-02   7.361401e-03   699256
  4.442476e+00   6.259320e+00   1.229990e-02   7.398273e-03   714730
  4.484986e+00   6.337939e+00   1.223739e-02   7.443460e-03   725152
  4.527452e+00   6.470986e+00   1.227054e-02   7.533257e-03   740420
  4.569941e+00   6.546555e+00   1.227636e-02   7.560355e-03   754312
  4.612456e+00   6.631787e+00   1.227959e-02   7.568855e-03   769114
  4.654996e+00   6.737227e+00   1.227684e-02   7.599384e-03   783488
  4.697459e+00   6.832838e+00   1.223560e-02   7.670335e-03   794968
  4.739925e+00   6.919965e+00   1.228043e-02   7.689047e-03   812366
  4.782438e+00   7.018844e+00   1.226054e-02   7.737973e-03   825976
  4.825000e+00   7.106877e+00   1.230088e-02   7.745345e-03   843352
  4.867591e+00   7.207027e+00   1.229290e-02   7.767312e-03   857280
  4.910094e+00   7.308285e+00   1.225276e-02   7.864968e-03   869542
  4.952587e+00   7.388640e+00   1.228301e-02   7.841172e-03   887128
  4.995087e+00   7.501185e+00   1.225266e-02   7.905122e-03   900032
  5.037553e+00   7.595896e+00   1.226951e-02   7.954182e-03   916560
  5.080018e+00   7.692902e+00   1.224713e-02   7.974367e-03   930922
  5.122540e+00   7.785148e+00   1.228718e-02   7.997038e-03   949844
  5.165149e+00   7.881082e+00   1.230776e-02   8.022375e-03   966736
  5.207698e+00   7.998543e+00   1.226328e-02   8.079253e-03   978776
  5.250149e+00   8.069563e+00   1.225655e-02   8.085375e-03   994522
  5.292642e+00   8.164947e+00   1.227563e-02   8.104875e-03   1012420
  5.335176e+00   8.267072e+00   1.228639e-02   8.158003e-03   1029408
  5.377640e+00   8.365181e+00   1.223362e-02   8.191876e-03   1041658
  5.420127e+00   8.465378e+00   1.228953e-02   8.214193e-03   1063520
  5.462635e+00   8.548449e+00   1.224276e-02   8.209681e-03   1075808
  5.505175e+00   8.645748e+00   1.232008e-02   8.250499e-03   1098956
  5.547712e+00   8.751382e+00   1.224668e-02   8.321088e-03   1109810
  5.590179e+00   8.836154e+00   1.226115e-02   8.308780e-03   1128608
  5.632713e+00   8.959116e+00   1.229436e-02   8.343859e-03   1148264
  5.675250e+00   9.033221e+00   1.227167e-02   8.370842e-03   1163252
  5.717744e+00   9.148292e+00   1.226828e-02   8.424445e-03   1181042
  5.760239e+00   9.228641e+00   1.225730e-02   8.435752e-03   1197848
  5.802769e+00   9.328917e+00   1.229495e-02   8.448834e-03   1218848
  5.845291e+00   9.411797e+00   1.225944e-02   8.481526e-03   1232916
  5.887780e+00   9.497935e+00   1.227538e-02   8.487708e-03   1253002
  5.930266e+00   9.606583e+00   1.224914e-02   8.516262e-03   1268576
  5.972763e+00   9.698399e+00   1.228621e-02   8.530355e-03   1290128
  6.015287e+00   9.802813e+00   1.227337e-02   8.573837e-03   1307402
  6.057820e+00   9.888251e+00   1.227649e-02   8.582601e-03   1327028
  6.100333e+00   9.974167e+00   1.225988e-02   8.598024e-03   1343648
  6.142842e+00   1.008637e+01   1.228087e-02   8.636292e-03   1364096
  6.185363e+00   1.017174e+01   1.227580e-02   8.645021e-03   1382730
  6.227896e+00   1.025402e+01   1.227503e-02   8.664641e-03   1402164
  6.270416e+00   1.037165e+01   1.227264e-02   8.700774e-03   1420464
  6.312883e+00   1.046204e+01   1.225519e-02   8.721546e-03   1437368
  6.355387e+00   1.054527e+01   1.228857e-02   8.722177e-03   1461530
  6.397919e+00   1.065735e+01   1.226028e-02   8.770953e-03   1478264
  6.440432e+00   1.072292e+01   1.227561e-02   8.772552e-03   1499356
  6.482926e+00   1.082076e+01   1.226095e-02   8.786743e-03   1517016
  6.525439e+00   1.092088e+01   1.228340e-02   8.777203e-03   1540090
  6.567953e+00   1.101936e+01   1.226146e-02   8.830331e-03   1557360
  6.610434e+00   1.107357e+01   1.226770e-02   8.794739e-03   1577780
  6.652969e+00   1.119212e+01   1.230043e-02   8.811898e-03   1602578
  6.695499e+00   1.127313e+01   1.225417e-02   8.883465e-03   1617672
  6.737992e+00   1.134935e+01   1.227613e-02   8.861373e-03   1641016
  6.780486e+00   1.143490e+01   1.226032e-02   8.876327e-03   1659416
  6.822983e+00   1.154226e+01   1.227372e-02   8.914022e-03   1682670
  6.865529e+00   1.159969e+01   1.228276e-02   8.889025e-03   1705256
  6.908096e+00   1.167354e+01   1.228756e-02   8.878840e-03   1726312
  6.950582e+00   1.176743e+01   1.225056e-02   8.921871e-03   1741880
  6.993044e+00   1.187360e+01   1.226862e-02   8.939805e-03   1766454
  7.035588e+00   1.196387e+01   1.229242e-02   8.939316e-03   1791784
  7.078111e+00   1.206502e+01   1.225558e-02   8.973490e-03   1807712
  7.120554e+00   1.211866e+01   1.225110e-02   8.966977e-03   1829002
  7.163037e+00   1.220204e+01   1.226905e-02   8.965673e-03   1854216
  7.205602e+00   1.226213e+01   1.229852e-02   8.952728e-03   1880156
  7.248150e+00   1.237885e+01   1.227340e-02   8.980337e-03   1897568
  7.290651e+00   1.245932e+01   1.227390e-02   8.991779e-03   1920458
  7.333153e+00   1.252485e+01   1.226399e-02   8.974053e-03   1942208
  7.375659e+00   1.262182e+01   1.227125e-02   9.005877e-03   1965612
  7.418175e+00   1.271319e+01   1.227855e-02   9.013879e-03   1989000
  7.460671e+00   1.275271e+01   1.225786e-02   8.996932e-03   2009114
  7.503166e+00   1.286112e+01   1.226960e-02   8.989467e-03   2034464
  7.545695e+00   1.292073e+01   1.228070e-02   9.001194e-03   2058476
  7.588207e+00   1.300183e+01   1.227216e-02   9.027214e-03   2079648
  7.630693e+00   1.307801e+01   1.226356e-02   9.033729e-03   2102578
  7.673222e+00   1.317429e+01   1.228297e-02   9.016883e-03   2129928
  7.715766e+00   1.323380e+01   1.227893e-02   9.015496e-03   2152096
  7.758252e+00   1.331680e+01   1.225143e-02   9.030577e-03   2171142
  7.800741e+00   1.339349e+01   1.227660e-02   9.035018e-03   2200248
  7.843296e+00   1.347236e+01   1.228407e-02   9.025133e-03   2225216
  7.885842e+00   1.354139e+01   1.228377e-02   9.027801e-03   2248448
  7.928336e+00   1.361370e+01   1.225709e-02   9.051883e-03   2267942
  7.970840e+00   1.367747e+01   1.228420e-02   9.025141e-03   2298072
  8.013348e+00   1.376266e+01   1.225627e-02   9.029719e-03   2317272
  8.055842e+00   1.384068e+01   1.227899e-02   9.035987e-03   2345808
  8.098322e+00   1.391318e+01   1.224988e-02   9.041635e-03   2365650
  8.140823e+00   1.396504e+01   1.227972e-02   9.020052e-03   2396940
  8.183368e+00   1.406394e+01   1.227975e-02   9.040805e-03   2421272
  8.225892e+00   1.411966e+01   1.227360e-02   9.039987e-03   2444576
  8.268407e+00   1.420309e+01   1.227899e-02   9.029623e-03   2471490
  8.310912e+00   1.425834e+01   1.225942e-02   9.023659e-03   2493180
  8.353397e+00   1.433071e+01   1.227208e-02   9.024953e-03   2520952
  8.395888e+00   1.438501e+01   1.226128e-02   9.022771e-03   2544946
  8.438392e+00   1.446839e+01   1.227324e-02   9.011453e-03   2573856
  8.480922e+00   1.451085e+01   1.227611e-02   8.982941e-03   2600016
  8.523447e+00   1.458865e+01   1.227641e-02   9.007653e-03   2625484
  8.565959e+00   1.466159e+01   1.227232e-02   8.997284e-03   2651122
  8.608519e+00   1.471149e+01   1.229739e-02   8.996649e-03   2683488
  8.651014e+00   1.477111e+01   1.223786e-02   9.002990e-03   2696352
  8.693483e+00   1.484213e+01   1.228468e-02   8.964567e-03   2733020
  8.736008e+00   1.489329e+01   1.227012e-02   8.971418e-03   2757378
  8.778525e+00   1.495525e+01   1.227177e-02   8.957034e-03   2784864
  8.821036e+00   1.499976e+01   1.227124e-02   8.932683e-03   2811168
  8.863496e+00   1.508411e+01   1.224424e-02   8.961333e-03   2832274
  8.906020e+00   1.513036e+01   1.230244e-02   8.918582e-03   2873636
  8.948567e+00   1.522046e+01   1.225951e-02   8.949967e-03   2890496
  8.991066e+00   1.524193e+01   1.227940e-02   8.925374e-03   2921800
  9.033598e+00   1.530293e+01   1.228441e-02   8.903208e-03   2951298
  9.076126e+00   1.538483e+01   1.226510e-02   8.916669e-03   2975476
  9.118654e+00   1.541437e+01   1.228550e-02   8.892786e-03   3007728
  9.161142e+00   1.548169e+01   1.224754e-02   8.906769e-03   3025776
  9.203640e+00   1.553986e+01   1.229182e-02   8.875015e-03   3065762
  9.246160e+00   1.558873e+01   1.225283e-02   8.881137e-03   3084856
  9.288649e+00   1.564848e+01   1.227594e-02   8.864558e-03   3118044
  9.331129e+00   1.567585e+01   1.225728e-02   8.839202e-03   3141352
  9.373640e+00   1.575420e+01   1.228814e-02   8.831458e-03   3179274
  9.416185e+00   1.581058e+01   1.227073e-02   8.825211e-03   3204120
  9.458671e+00   1.584407e+01   1.225444e-02   8.827854e-03   3227900
  9.501151e+00   1.590449e+01   1.227489e-02   8.805998e-03   3262394
  9.543701e+00   1.597160e+01   1.228726e-02   8.800134e-03   3295680
  9.586236e+00   1.601219e+01   1.226866e-02   8.788096e-03   3319560
  9.628737e+00   1.608305e+01   1.227228e-02   8.790238e-03   3348972
  9.671240e+00   1.609781e+01   1.227416e-02   8.768399e-03   3379722
  9.713763e+00   1.614610e+01   1.227339e-02   8.733903e-03   3410720
  9.756299e+00   1.620577e+01   1.227807e-02   8.731623e-03   3441504
  9.798787e+00   1.625022e+01   1.225320e-02   8.739295e-03   3463624
  9.841266e+00   1.629622e+01   1.227217e-02   8.713653e-03   3499790
  9.883803e+00   1.632824e+01   1.228281e-02   8.671603e-03   3533560
  9.926350e+00   1.638799e+01   1.227932e-02   8.672190e-03   3561920
  9.968836e+00   1.644800e+01   1.225683e-02   8.694610e-03   3585208
  1.001132e+01   1.648656e+01   1.227674e-02   8.667019e-03   3622518
  1.005387e+01   1.651879e+01   1.228938e-02   8.631104e-03   3657584
  1.009637e+01   1.658221e+01   1.225003e-02   8.641190e-03   3676440
  1.013883e+01   1.659960e+01   1.226093e-02   8.601272e-03   3711282
  1.018134e+01   1.665339e+01   1.227505e-02   8.609035e-03   3747696
  1.022386e+01   1.668872e+01   1.226890e-02   8.583372e-03   3776188
  1.026640e+01   1.671952e+01   1.229793e-02   8.561967e-03   3815304
  1.030893e+01   1.675353e+01   1.225864e-02   8.549514e-03   3835370
  1.035143e+01   1.680288e+01   1.227570e-02   8.543459e-03   3873424
  1.039395e+01   1.681998e+01   1.227191e-02   8.513064e-03   3903420
  1.043647e+01   1.687276e+01   1.228014e-02   8.505202e-03   3937624
  1.047898e+01   1.688551e+01   1.226404e-02   8.463274e-03   3965658
  1.052150e+01   1.694782e+01   1.227921e-02   8.476292e-03   4002984
  1.056400e+01   1.696568e+01   1.226054e-02   8.455557e-03   4027928
  1.060647e+01   1.701873e+01   1.225976e-02   8.436455e-03   4059844
  1.064896e+01   1.705073e+01   1.227978e-02   8.437435e-03   4100338
  1.069151e+01   1.708104e+01   1.227651e-02   8.408377e-03   4132264
  1.073403e+01   1.713419e+01   1.227390e-02   8.389952e-03   4163216
  1.077652e+01   1.714855e+01   1.226459e-02   8.379163e-03   4193350
  1.081904e+01   1.719387e+01   1.228427e-02   8.355088e-03   4234456
  1.086156e+01   1.719397e+01   1.225632e-02   8.322303e-03   4257264
  1.090405e+01   1.722627e+01   1.227910e-02   8.312141e-03   4297352
  1.094656e+01   1.726273e+01   1.226998e-02   8.297288e-03   4328642
  1.098909e+01   1.729399e+01   1.228265e-02   8.268322e-03   4367948
  1.103158e+01   1.733504e+01   1.224720e-02   8.279507e-03   4388384
  1.107408e+01   1.735520e+01   1.228899e-02   8.237933e-03   4436648
  1.111661e+01   1.736674e+01   1.227199e-02   8.220631e-03   4465658
  1.115915e+01   1.740494e+01   1.227871e-02   8.198005e-03   4502948
  1.120165e+01   1.742561e+01   1.225915e-02   8.196851e-03   4528880
  1.124413e+01   1.747512e+01   1.226872e-02   8.187905e-03   4566290
  1.128665e+01   1.748080e+01   1.228262e-02   8.136286e-03   4606856
  1.132917e+01   1.751210e+01   1.226621e-02   8.128082e-03   4635380
  1.137166e+01   1.753145e+01   1.226853e-02   8.114631e-03   4670384
  1.141417e+01   1.755770e+01   1.227665e-02   8.096801e-03   4709258
  1.145672e+01   1.758752e+01   1.228130e-02   8.079801e-03   4747352
  1.149922e+01   1.757303e+01   1.225462e-02   8.046102e-03   4771664
  1.154171e+01   1.762368e+01   1.227440e-02   8.028073e-03   4813532
  1.158423e+01   1.762367e+01   1.228175e-02   8.004872e-03   4852322
  1.162677e+01   1.764366e+01   1.227605e-02   7.978190e-03   4886480
  1.166928e+01   1.768266e+01   1.226516e-02   7.975906e-03   4917248
  1.171175e+01   1.769788e+01   1.226039e-02   7.964350e-03   4950828
  1.175428e+01   1.771247e+01   1.229115e-02   7.913873e-03   5000170
  1.179682e+01   1.774250e+01   1.226743e-02   7.916950e-03   5026952
  1.183930e+01   1.774319e+01   1.225870e-02   7.874755e-03   5058752
  1.188178e+01   1.776473e+01   1.227096e-02   7.873406e-03   5100722
  1.192431e+01   1.779474e+01   1.227592e-02   7.844126e-03   5140124
  1.196682e+01   1.780733e+01   1.227175e-02   7.827021e-03   5174072
  1.200934e+01   1.780942e+01   1.227571e-02   7.796672e-03   5211608
  1.205185e+01   1.782441e+01   1.227167e-02   7.780542e-03   5247794
  1.209436e+01   1.783867e+01   1.226763e-02   7.762568e-03   5284196
  1.213689e+01   1.787641e+01   1.228663e-02   7.751009e-03   5328800
