# power spectrum of delta
# redshift z=0.298315
# k              Pk             sigma(k)       sigma(Pk)      count
  3.132125e-02   9.856655e-03   4.792454e-03   1.843396e-03   18
  6.745391e-02   1.092343e-01   1.159167e-02   1.065492e-02   152
  1.090113e-01   2.571336e-01   1.224347e-02   1.227227e-02   416
  1.497134e-01   4.332457e-01   1.165022e-02   1.606102e-02   770
  1.923472e-01   6.385349e-01   1.247860e-02   1.746467e-02   1364
  2.350444e-01   9.036947e-01   1.221820e-02   1.991292e-02   1976
  2.775930e-01   1.172127e+00   1.245022e-02   2.283441e-02   2792
  3.193857e-01   1.522453e+00   1.188722e-02   2.544337e-02   3578
  3.615292e-01   1.881782e+00   1.219808e-02   2.795834e-02   4724
  4.045273e-01   2.260055e+00   1.253838e-02   2.871434e-02   6032
  4.469941e-01   2.667776e+00   1.206640e-02   3.190448e-02   7072
  4.890810e-01   3.256266e+00   1.222555e-02   3.567774e-02   8634
  5.318886e-01   3.805374e+00   1.238102e-02   3.725309e-02   10336
  5.746708e-01   4.350281e+00   1.232804e-02   4.028136e-02   11940
  6.167490e-01   5.019235e+00   1.208586e-02   4.229085e-02   13490
  6.588740e-01   5.652072e+00   1.221778e-02   4.520158e-02   15656
  7.016595e-01   6.390123e+00   1.241043e-02   4.808487e-02   18008
  7.443680e-01   7.103760e+00   1.227786e-02   5.037443e-02   19964
  7.867827e-01   8.009511e+00   1.226437e-02   5.350868e-02   22354
  8.291404e-01   9.005379e+00   1.212327e-02   5.732552e-02   24648
  8.716536e-01   9.902075e+00   1.233244e-02   5.854142e-02   27592
  9.142068e-01   1.075897e+01   1.230127e-02   6.289067e-02   30152
  9.566749e-01   1.205047e+01   1.227622e-02   6.584643e-02   33046
  9.991233e-01   1.285342e+01   1.221538e-02   6.851655e-02   35992
  1.041693e+00   1.410278e+01   1.229906e-02   7.132795e-02   39304
  1.084289e+00   1.501331e+01   1.232858e-02   7.263438e-02   42608
  1.126820e+00   1.643334e+01   1.223307e-02   7.708912e-02   45758
  1.169340e+00   1.775333e+01   1.228914e-02   8.016480e-02   49536
  1.211695e+00   1.853496e+01   1.215683e-02   8.187610e-02   52488
  1.254054e+00   2.002625e+01   1.233851e-02   8.380697e-02   57034
  1.296605e+00   2.149078e+01   1.224458e-02   8.776662e-02   60648
  1.339187e+00   2.266860e+01   1.230532e-02   8.906504e-02   65044
  1.381689e+00   2.428729e+01   1.223104e-02   9.324434e-02   68720
  1.424202e+00   2.560586e+01   1.231312e-02   9.426620e-02   73538
  1.466870e+00   2.649281e+01   1.230776e-02   9.500672e-02   78080
  1.509304e+00   2.805105e+01   1.215944e-02   9.789691e-02   81572
  1.551677e+00   2.985738e+01   1.232495e-02   1.004236e-01   87248
  1.594353e+00   3.133687e+01   1.233837e-02   1.027142e-01   92266
  1.636929e+00   3.269876e+01   1.225268e-02   1.056285e-01   96696
  1.679216e+00   3.408005e+01   1.215041e-02   1.070011e-01   100904
  1.721516e+00   3.571698e+01   1.226207e-02   1.089712e-01   107036
  1.764192e+00   3.689986e+01   1.235795e-02   1.088542e-01   113362
  1.806923e+00   3.867438e+01   1.228837e-02   1.123115e-01   118176
  1.849351e+00   4.005746e+01   1.221864e-02   1.138906e-01   122944
  1.891857e+00   4.173582e+01   1.233203e-02   1.156583e-01   129902
  1.934420e+00   4.352986e+01   1.224691e-02   1.190845e-01   134944
  1.976863e+00   4.474044e+01   1.225992e-02   1.193409e-01   140952
  2.019285e+00   4.630326e+01   1.225865e-02   1.199713e-01   147072
  2.061737e+00   4.765126e+01   1.224320e-02   1.216296e-01   153382
  2.104357e+00   4.901506e+01   1.233049e-02   1.220091e-01   160952
  2.147003e+00   5.091526e+01   1.228118e-02   1.240866e-01   166640
  2.189431e+00   5.187401e+01   1.222861e-02   1.250140e-01   172448
  2.231915e+00   5.382683e+01   1.231031e-02   1.263791e-01   180594
  2.274471e+00   5.511283e+01   1.224284e-02   1.280788e-01   186556
  2.316888e+00   5.633436e+01   1.225358e-02   1.283417e-01   193528
  2.359297e+00   5.800919e+01   1.224273e-02   1.292810e-01   200626
  2.401844e+00   5.925479e+01   1.230642e-02   1.295598e-01   209256
  2.444460e+00   6.081172e+01   1.227865e-02   1.307027e-01   216020
  2.487004e+00   6.255720e+01   1.230299e-02   1.325502e-01   223768
  2.529444e+00   6.386083e+01   1.222313e-02   1.328716e-01   230234
  2.571955e+00   6.551062e+01   1.229969e-02   1.338558e-01   239800
  2.614499e+00   6.675285e+01   1.225221e-02   1.347164e-01   246568
  2.656957e+00   6.809115e+01   1.227331e-02   1.347687e-01   254828
  2.699414e+00   6.950500e+01   1.225769e-02   1.353671e-01   263074
  2.741981e+00   7.101672e+01   1.228604e-02   1.365631e-01   272312
  2.784554e+00   7.212841e+01   1.228079e-02   1.361450e-01   280376
  2.827093e+00   7.377603e+01   1.228600e-02   1.372927e-01   288884
  2.869605e+00   7.537826e+01   1.227401e-02   1.384364e-01   297602
  2.912071e+00   7.659795e+01   1.223046e-02   1.387635e-01   305520
  2.954561e+00   7.801640e+01   1.230079e-02   1.386858e-01   315976
  2.996984e+00   7.938343e+01   1.221089e-02   1.398111e-01   322778
  3.039488e+00   8.071768e+01   1.232008e-02   1.395131e-01   335372
  3.082114e+00   8.185459e+01   1.227327e-02   1.392426e-01   343464
  3.124654e+00   8.342374e+01   1.228282e-02   1.401002e-01   352912
  3.167174e+00   8.452579e+01   1.228199e-02   1.406839e-01   362666
  3.209689e+00   8.603318e+01   1.225476e-02   1.409435e-01   371884
  3.252186e+00   8.723453e+01   1.227971e-02   1.410421e-01   382280
  3.294633e+00   8.856380e+01   1.224302e-02   1.414306e-01   390888
  3.337059e+00   8.966554e+01   1.226867e-02   1.415183e-01   402234
  3.379565e+00   9.139606e+01   1.225933e-02   1.417969e-01   412576
  3.422105e+00   9.260628e+01   1.228715e-02   1.423134e-01   423732
  3.464636e+00   9.352194e+01   1.227257e-02   1.417559e-01   433624
  3.507180e+00   9.501785e+01   1.228881e-02   1.424442e-01   445154
  3.549739e+00   9.624803e+01   1.227656e-02   1.425783e-01   455584
  3.592238e+00   9.731198e+01   1.225887e-02   1.422826e-01   465588
  3.634685e+00   9.860598e+01   1.226065e-02   1.433050e-01   476762
  3.677219e+00   9.983475e+01   1.229242e-02   1.424931e-01   489552
  3.719789e+00   1.013393e+02   1.227853e-02   1.431458e-01   500328
  3.762251e+00   1.020431e+02   1.223705e-02   1.431046e-01   509852
  3.804741e+00   1.034935e+02   1.229735e-02   1.430910e-01   524234
  3.847275e+00   1.043638e+02   1.224781e-02   1.425822e-01   534104
  3.889779e+00   1.061240e+02   1.228211e-02   1.438152e-01   547048
  3.932320e+00   1.071384e+02   1.229545e-02   1.431611e-01   559328
  3.974872e+00   1.083200e+02   1.228346e-02   1.430668e-01   571326
  4.017355e+00   1.092263e+02   1.224147e-02   1.433442e-01   581920
  4.059804e+00   1.103102e+02   1.225835e-02   1.430717e-01   594832
  4.102282e+00   1.115545e+02   1.227222e-02   1.436430e-01   608048
  4.144825e+00   1.125401e+02   1.228101e-02   1.423359e-01   621526
  4.187356e+00   1.138928e+02   1.226445e-02   1.430046e-01   633240
  4.229822e+00   1.144260e+02   1.225981e-02   1.424099e-01   645472
  4.272346e+00   1.157593e+02   1.230137e-02   1.424902e-01   660906
  4.314903e+00   1.165835e+02   1.227030e-02   1.422362e-01   672856
  4.357425e+00   1.177880e+02   1.226838e-02   1.420917e-01   685980
  4.399921e+00   1.188197e+02   1.227191e-02   1.419127e-01   699256
  4.442476e+00   1.194099e+02   1.229990e-02   1.408664e-01   714730
  4.484986e+00   1.210244e+02   1.223739e-02   1.420267e-01   725152
  4.527452e+00   1.219750e+02   1.227054e-02   1.417189e-01   740420
  4.569941e+00   1.230675e+02   1.227636e-02   1.420881e-01   754312
  4.612456e+00   1.243483e+02   1.227959e-02   1.417027e-01   769114
  4.654996e+00   1.253375e+02   1.227684e-02   1.418380e-01   783488
  4.697459e+00   1.259752e+02   1.223560e-02   1.410531e-01   794968
  4.739925e+00   1.269737e+02   1.228043e-02   1.404563e-01   812366
  4.782438e+00   1.279389e+02   1.226054e-02   1.407935e-01   825976
  4.825000e+00   1.288018e+02   1.230088e-02   1.401553e-01   843352
  4.867591e+00   1.297211e+02   1.229290e-02   1.400371e-01   857280
  4.910094e+00   1.306824e+02   1.225276e-02   1.403030e-01   869542
  4.952587e+00   1.316934e+02   1.228301e-02   1.394612e-01   887128
  4.995087e+00   1.324450e+02   1.225266e-02   1.395915e-01   900032
  5.037553e+00   1.337773e+02   1.226951e-02   1.394077e-01   916560
  5.080018e+00   1.344033e+02   1.224713e-02   1.392264e-01   930922
  5.122540e+00   1.352005e+02   1.228718e-02   1.385445e-01   949844
  5.165149e+00   1.361653e+02   1.230776e-02   1.384130e-01   966736
  5.207698e+00   1.369923e+02   1.226328e-02   1.385370e-01   978776
  5.250149e+00   1.376387e+02   1.225655e-02   1.379170e-01   994522
  5.292642e+00   1.384394e+02   1.227563e-02   1.374760e-01   1012420
  5.335176e+00   1.397538e+02   1.228639e-02   1.377042e-01   1029408
  5.377640e+00   1.403873e+02   1.223362e-02   1.375379e-01   1041658
  5.420127e+00   1.410357e+02   1.228953e-02   1.368901e-01   1063520
  5.462635e+00   1.420128e+02   1.224276e-02   1.370227e-01   1075808
  5.505175e+00   1.427367e+02   1.232008e-02   1.361729e-01   1098956
  5.547712e+00   1.434485e+02   1.224668e-02   1.356510e-01   1109810
  5.590179e+00   1.442630e+02   1.226115e-02   1.356950e-01   1128608
  5.632713e+00   1.451867e+02   1.229436e-02   1.356395e-01   1148264
  5.675250e+00   1.455980e+02   1.227167e-02   1.346993e-01   1163252
  5.717744e+00   1.469890e+02   1.226828e-02   1.352826e-01   1181042
  5.760239e+00   1.477676e+02   1.225730e-02   1.350912e-01   1197848
  5.802769e+00   1.480484e+02   1.229495e-02   1.340424e-01   1218848
  5.845291e+00   1.486920e+02   1.225944e-02   1.337268e-01   1232916
  5.887780e+00   1.498212e+02   1.227538e-02   1.337655e-01   1253002
  5.930266e+00   1.502193e+02   1.224914e-02   1.333827e-01   1268576
  5.972763e+00   1.510238e+02   1.228621e-02   1.327662e-01   1290128
  6.015287e+00   1.515677e+02   1.227337e-02   1.320515e-01   1307402
  6.057820e+00   1.522703e+02   1.227649e-02   1.320907e-01   1327028
  6.100333e+00   1.525274e+02   1.225988e-02   1.317336e-01   1343648
  6.142842e+00   1.532536e+02   1.228087e-02   1.312340e-01   1364096
  6.185363e+00   1.540604e+02   1.227580e-02   1.308568e-01   1382730
  6.227896e+00   1.546201e+02   1.227503e-02   1.306768e-01   1402164
  6.270416e+00   1.555013e+02   1.227264e-02   1.306483e-01   1420464
  6.312883e+00   1.563119e+02   1.225519e-02   1.304840e-01   1437368
  6.355387e+00   1.569548e+02   1.228857e-02   1.298893e-01   1461530
  6.397919e+00   1.573551e+02   1.226028e-02   1.295638e-01   1478264
  6.440432e+00   1.582588e+02   1.227561e-02   1.291758e-01   1499356
  6.482926e+00   1.584741e+02   1.226095e-02   1.287604e-01   1517016
  6.525439e+00   1.590751e+02   1.228340e-02   1.283951e-01   1540090
  6.567953e+00   1.600013e+02   1.226146e-02   1.282891e-01   1557360
  6.610434e+00   1.603528e+02   1.226770e-02   1.277119e-01   1577780
  6.652969e+00   1.609391e+02   1.230043e-02   1.270995e-01   1602578
  6.695499e+00   1.613379e+02   1.225417e-02   1.268994e-01   1617672
  6.737992e+00   1.618324e+02   1.227613e-02   1.265553e-01   1641016
  6.780486e+00   1.626391e+02   1.226032e-02   1.263293e-01   1659416
  6.822983e+00   1.624960e+02   1.227372e-02   1.254411e-01   1682670
  6.865529e+00   1.634971e+02   1.228276e-02   1.248941e-01   1705256
  6.908096e+00   1.640323e+02   1.228756e-02   1.248557e-01   1726312
  6.950582e+00   1.643613e+02   1.225056e-02   1.246273e-01   1741880
  6.993044e+00   1.651044e+02   1.226862e-02   1.244103e-01   1766454
  7.035588e+00   1.653331e+02   1.229242e-02   1.233370e-01   1791784
  7.078111e+00   1.657385e+02   1.225558e-02   1.230586e-01   1807712
  7.120554e+00   1.660926e+02   1.225110e-02   1.228680e-01   1829002
  7.163037e+00   1.667445e+02   1.226905e-02   1.226088e-01   1854216
  7.205602e+00   1.668581e+02   1.229852e-02   1.216735e-01   1880156
  7.248150e+00   1.674866e+02   1.227340e-02   1.215439e-01   1897568
  7.290651e+00   1.675613e+02   1.227390e-02   1.209364e-01   1920458
  7.333153e+00   1.680736e+02   1.226399e-02   1.206295e-01   1942208
  7.375659e+00   1.690701e+02   1.227125e-02   1.205313e-01   1965612
  7.418175e+00   1.690750e+02   1.227855e-02   1.200596e-01   1989000
  7.460671e+00   1.694068e+02   1.225786e-02   1.195235e-01   2009114
  7.503166e+00   1.697213e+02   1.226960e-02   1.188833e-01   2034464
  7.545695e+00   1.700562e+02   1.228070e-02   1.184413e-01   2058476
  7.588207e+00   1.704051e+02   1.227216e-02   1.180897e-01   2079648
  7.630693e+00   1.707610e+02   1.226356e-02   1.176904e-01   2102578
  7.673222e+00   1.710442e+02   1.228297e-02   1.170816e-01   2129928
  7.715766e+00   1.710492e+02   1.227893e-02   1.164375e-01   2152096
  7.758252e+00   1.717181e+02   1.225143e-02   1.165078e-01   2171142
  7.800741e+00   1.720614e+02   1.227660e-02   1.157790e-01   2200248
  7.843296e+00   1.721971e+02   1.228407e-02   1.156683e-01   2225216
  7.885842e+00   1.728131e+02   1.228377e-02   1.152805e-01   2248448
  7.928336e+00   1.729249e+02   1.225709e-02   1.147586e-01   2267942
  7.970840e+00   1.729858e+02   1.228420e-02   1.140748e-01   2298072
  8.013348e+00   1.734761e+02   1.225627e-02   1.137375e-01   2317272
  8.055842e+00   1.734587e+02   1.227899e-02   1.131698e-01   2345808
  8.098322e+00   1.735689e+02   1.224988e-02   1.127984e-01   2365650
  8.140823e+00   1.742713e+02   1.227972e-02   1.124836e-01   2396940
  8.183368e+00   1.746163e+02   1.227975e-02   1.121516e-01   2421272
  8.225892e+00   1.745882e+02   1.227360e-02   1.116564e-01   2444576
  8.268407e+00   1.749881e+02   1.227899e-02   1.111864e-01   2471490
  8.310912e+00   1.749706e+02   1.225942e-02   1.106434e-01   2493180
  8.353397e+00   1.748466e+02   1.227208e-02   1.100744e-01   2520952
  8.395888e+00   1.755142e+02   1.226128e-02   1.099550e-01   2544946
  8.438392e+00   1.755663e+02   1.227324e-02   1.094085e-01   2573856
  8.480922e+00   1.760873e+02   1.227611e-02   1.091641e-01   2600016
  8.523447e+00   1.760861e+02   1.227641e-02   1.087872e-01   2625484
  8.565959e+00   1.762366e+02   1.227232e-02   1.081192e-01   2651122
  8.608519e+00   1.765074e+02   1.229739e-02   1.076991e-01   2683488
  8.651014e+00   1.764580e+02   1.223786e-02   1.074593e-01   2696352
  8.693483e+00   1.766103e+02   1.228468e-02   1.070505e-01   2733020
  8.736008e+00   1.769726e+02   1.227012e-02   1.066407e-01   2757378
  8.778525e+00   1.769510e+02   1.227177e-02   1.061741e-01   2784864
  8.821036e+00   1.775262e+02   1.227124e-02   1.058962e-01   2811168
  8.863496e+00   1.769550e+02   1.224424e-02   1.051504e-01   2832274
  8.906020e+00   1.772976e+02   1.230244e-02   1.046769e-01   2873636
  8.948567e+00   1.774993e+02   1.225951e-02   1.044215e-01   2890496
  8.991066e+00   1.776956e+02   1.227940e-02   1.039289e-01   2921800
  9.033598e+00   1.774287e+02   1.228441e-02   1.033277e-01   2951298
  9.076126e+00   1.778757e+02   1.226510e-02   1.031718e-01   2975476
  9.118654e+00   1.779239e+02   1.228550e-02   1.027882e-01   3007728
  9.161142e+00   1.778884e+02   1.224754e-02   1.022600e-01   3025776
  9.203640e+00   1.778679e+02   1.229182e-02   1.016182e-01   3065762
  9.246160e+00   1.780368e+02   1.225283e-02   1.014111e-01   3084856
  9.288649e+00   1.781196e+02   1.227594e-02   1.008765e-01   3118044
  9.331129e+00   1.781659e+02   1.225728e-02   1.005367e-01   3141352
  9.373640e+00   1.781479e+02   1.228814e-02   9.985267e-02   3179274
  9.416185e+00   1.781543e+02   1.227073e-02   9.942973e-02   3204120
  9.458671e+00   1.781105e+02   1.225444e-02   9.911377e-02   3227900
  9.501151e+00   1.782504e+02   1.227489e-02   9.870580e-02   3262394
  9.543701e+00   1.780736e+02   1.228726e-02   9.806776e-02   3295680
  9.586236e+00   1.781950e+02   1.226866e-02   9.785428e-02   3319560
  9.628737e+00   1.783199e+02   1.227228e-02   9.740254e-02   3348972
  9.671240e+00   1.784104e+02   1.227416e-02   9.703053e-02   3379722
  9.713763e+00   1.784439e+02   1.227339e-02   9.659458e-02   3410720
  9.756299e+00   1.783136e+02   1.227807e-02   9.617717e-02   3441504
  9.798787e+00   1.780784e+02   1.225320e-02   9.552255e-02   3463624
  9.841266e+00   1.781134e+02   1.227217e-02   9.520665e-02   3499790
  9.883803e+00   1.782733e+02   1.228281e-02   9.471499e-02   3533560
  9.926350e+00   1.783835e+02   1.227932e-02   9.447228e-02   3561920
  9.968836e+00   1.779375e+02   1.225683e-02   9.407261e-02   3585208
  1.001132e+01   1.780125e+02   1.227674e-02   9.349472e-02   3622518
  1.005387e+01   1.779416e+02   1.228938e-02   9.320192e-02   3657584
  1.009637e+01   1.777038e+02   1.225003e-02   9.277603e-02   3676440
  1.013883e+01   1.776507e+02   1.226093e-02   9.222778e-02   3711282
  1.018134e+01   1.776220e+02   1.227505e-02   9.173739e-02   3747696
  1.022386e+01   1.776279e+02   1.226890e-02   9.135581e-02   3776188
  1.026640e+01   1.776485e+02   1.229793e-02   9.089203e-02   3815304
  1.030893e+01   1.774667e+02   1.225864e-02   9.075402e-02   3835370
  1.035143e+01   1.773336e+02   1.227570e-02   9.016185e-02   3873424
  1.039395e+01   1.770667e+02   1.227191e-02   8.954788e-02   3903420
  1.043647e+01   1.771346e+02   1.228014e-02   8.927168e-02   3937624
  1.047898e+01   1.770431e+02   1.226404e-02   8.890239e-02   3965658
  1.052150e+01   1.772098e+02   1.227921e-02   8.857222e-02   4002984
  1.056400e+01   1.768790e+02   1.226054e-02   8.810486e-02   4027928
  1.060647e+01   1.764016e+02   1.225976e-02   8.762656e-02   4059844
  1.064896e+01   1.764007e+02   1.227978e-02   8.715430e-02   4100338
  1.069151e+01   1.762929e+02   1.227651e-02   8.669373e-02   4132264
  1.073403e+01   1.764136e+02   1.227390e-02   8.642380e-02   4163216
  1.077652e+01   1.761222e+02   1.226459e-02   8.601887e-02   4193350
  1.081904e+01   1.760543e+02   1.228427e-02   8.561791e-02   4234456
  1.086156e+01   1.756758e+02   1.225632e-02   8.517901e-02   4257264
  1.090405e+01   1.755132e+02   1.227910e-02   8.457983e-02   4297352
  1.094656e+01   1.754799e+02   1.226998e-02   8.440404e-02   4328642
  1.098909e+01   1.752200e+02   1.228265e-02   8.398466e-02   4367948
  1.103158e+01   1.748026e+02   1.224720e-02   8.338960e-02   4388384
  1.107408e+01   1.749598e+02   1.228899e-02   8.311687e-02   4436648
  1.111661e+01   1.748152e+02   1.227199e-02   8.277788e-02   4465658
  1.115915e+01   1.744367e+02   1.227871e-02   8.228424e-02   4502948
  1.120165e+01   1.741787e+02   1.225915e-02   8.192075e-02   4528880
  1.124413e+01   1.739313e+02   1.226872e-02   8.141239e-02   4566290
  1.128665e+01   1.739079e+02   1.228262e-02   8.091740e-02   4606856
  1.132917e+01   1.738353e+02   1.226621e-02   8.073595e-02   4635380
  1.137166e+01   1.732655e+02   1.226853e-02   8.016142e-02   4670384
  1.141417e+01   1.731769e+02   1.227665e-02   7.987383e-02   4709258
  1.145672e+01   1.730602e+02   1.228130e-02   7.934967e-02   4747352
  1.149922e+01   1.725308e+02   1.225462e-02   7.909095e-02   4771664
  1.154171e+01   1.726955e+02   1.227440e-02   7.875297e-02   4813532
  1.158423e+01   1.723164e+02   1.228175e-02   7.822097e-02   4852322
  1.162677e+01   1.720719e+02   1.227605e-02   7.781354e-02   4886480
  1.166928e+01   1.717363e+02   1.226516e-02   7.742385e-02   4917248
  1.171175e+01   1.715158e+02   1.226039e-02   7.720045e-02   4950828
  1.175428e+01   1.711843e+02   1.229115e-02   7.653784e-02   5000170
  1.179682e+01   1.710312e+02   1.226743e-02   7.629807e-02   5026952
  1.183930e+01   1.708059e+02   1.225870e-02   7.586108e-02   5058752
  1.188178e+01   1.703947e+02   1.227096e-02   7.544037e-02   5100722
  1.192431e+01   1.703968e+02   1.227592e-02   7.512364e-02   5140124
  1.196682e+01   1.701576e+02   1.227175e-02   7.482371e-02   5174072
  1.200934e+01   1.698734e+02   1.227571e-02   7.437979e-02   5211608
  1.205185e+01   1.693587e+02   1.227167e-02   7.398037e-02   5247794
  1.209436e+01   1.693359e+02   1.226763e-02   7.366287e-02   5284196
  1.213689e+01   1.686994e+02   1.228663e-02   7.311938e-02   5328800
