# power spectrum of delta_N
# redshift z=2.885851
# k              Pk             sigma(k)       sigma(Pk)      count
  3.132125e-02   1.441002e-03   4.792454e-03   2.676846e-04   18
  6.745391e-02   1.638037e-02   1.159167e-02   1.645574e-03   152
  1.090113e-01   3.775362e-02   1.224347e-02   1.730602e-03   416
  1.497134e-01   6.193699e-02   1.165022e-02   2.321085e-03   770
  1.923472e-01   8.745951e-02   1.247860e-02   2.478442e-03   1364
  2.350444e-01   1.086903e-01   1.221820e-02   2.448872e-03   1976
  2.775930e-01   1.356504e-01   1.245022e-02   2.625277e-03   2792
  3.193857e-01   1.622560e-01   1.188722e-02   2.699433e-03   3578
  3.615292e-01   1.840317e-01   1.219808e-02   2.690353e-03   4724
  4.045273e-01   2.130708e-01   1.253838e-02   2.728966e-03   6032
  4.469941e-01   2.314962e-01   1.206640e-02   2.880258e-03   7072
  4.890810e-01   2.649816e-01   1.222555e-02   2.919843e-03   8634
  5.318886e-01   2.967034e-01   1.238102e-02   2.995228e-03   10336
  5.746708e-01   3.249957e-01   1.232804e-02   2.909710e-03   11940
  6.167490e-01   3.516204e-01   1.208586e-02   3.046733e-03   13490
  6.588740e-01   3.892729e-01   1.221778e-02   3.077270e-03   15656
  7.016595e-01   4.138051e-01   1.241043e-02   2.995323e-03   18008
  7.443680e-01   4.414071e-01   1.227786e-02   3.194267e-03   19964
  7.867827e-01   4.797575e-01   1.226437e-02   3.279496e-03   22354
  8.291404e-01   5.027150e-01   1.212327e-02   3.199403e-03   24648
  8.716536e-01   5.318632e-01   1.233244e-02   3.139571e-03   27592
  9.142068e-01   5.774513e-01   1.230127e-02   3.345938e-03   30152
  9.566749e-01   6.043305e-01   1.227622e-02   3.338071e-03   33046
  9.991233e-01   6.460316e-01   1.221538e-02   3.384132e-03   35992
  1.041693e+00   6.851327e-01   1.229906e-02   3.413466e-03   39304
  1.084289e+00   7.134623e-01   1.232858e-02   3.470483e-03   42608
  1.126820e+00   7.607377e-01   1.223307e-02   3.575473e-03   45758
  1.169340e+00   7.842262e-01   1.228914e-02   3.505632e-03   49536
  1.211695e+00   8.310018e-01   1.215683e-02   3.620683e-03   52488
  1.254054e+00   8.769385e-01   1.233851e-02   3.666383e-03   57034
  1.296605e+00   9.151643e-01   1.224458e-02   3.700074e-03   60648
  1.339187e+00   9.563414e-01   1.230532e-02   3.743522e-03   65044
  1.381689e+00   1.000826e+00   1.223104e-02   3.799556e-03   68720
  1.424202e+00   1.048544e+00   1.231312e-02   3.857176e-03   73538
  1.466870e+00   1.088535e+00   1.230776e-02   3.881603e-03   78080
  1.509304e+00   1.141202e+00   1.215944e-02   3.999175e-03   81572
  1.551677e+00   1.191378e+00   1.232495e-02   4.052137e-03   87248
  1.594353e+00   1.230553e+00   1.233837e-02   4.085853e-03   92266
  1.636929e+00   1.277233e+00   1.225268e-02   4.118184e-03   96696
  1.679216e+00   1.332962e+00   1.215041e-02   4.178296e-03   100904
  1.721516e+00   1.384432e+00   1.226207e-02   4.237221e-03   107036
  1.764192e+00   1.439026e+00   1.235795e-02   4.285653e-03   113362
  1.806923e+00   1.492725e+00   1.228837e-02   4.341960e-03   118176
  1.849351e+00   1.547384e+00   1.221864e-02   4.420059e-03   122944
  1.891857e+00   1.593807e+00   1.233203e-02   4.417409e-03   129902
  1.934420e+00   1.645214e+00   1.224691e-02   4.494299e-03   134944
  1.976863e+00   1.706479e+00   1.225992e-02   4.535364e-03   140952
  2.019285e+00   1.762452e+00   1.225865e-02   4.601341e-03   147072
  2.061737e+00   1.822676e+00   1.224320e-02   4.637533e-03   153382
  2.104357e+00   1.884911e+00   1.233049e-02   4.659256e-03   160952
  2.147003e+00   1.945331e+00   1.228118e-02   4.766007e-03   166640
  2.189431e+00   1.991325e+00   1.222861e-02   4.791202e-03   172448
  2.231915e+00   2.058676e+00   1.231031e-02   4.865773e-03   180594
  2.274471e+00   2.109359e+00   1.224284e-02   4.868746e-03   186556
  2.316888e+00   2.184378e+00   1.225358e-02   4.976637e-03   193528
  2.359297e+00   2.253422e+00   1.224273e-02   5.021398e-03   200626
  2.401844e+00   2.308944e+00   1.230642e-02   5.040908e-03   209256
  2.444460e+00   2.378014e+00   1.227865e-02   5.107196e-03   216020
  2.487004e+00   2.441704e+00   1.230299e-02   5.139619e-03   223768
  2.529444e+00   2.510344e+00   1.222313e-02   5.250726e-03   230234
  2.571955e+00   2.568949e+00   1.229969e-02   5.218406e-03   239800
  2.614499e+00   2.651417e+00   1.225221e-02   5.344005e-03   246568
  2.656957e+00   2.733247e+00   1.227331e-02   5.398920e-03   254828
  2.699414e+00   2.774755e+00   1.225769e-02   5.404189e-03   263074
  2.741981e+00   2.849792e+00   1.228604e-02   5.467232e-03   272312
  2.784554e+00   2.941544e+00   1.228079e-02   5.575074e-03   280376
  2.827093e+00   3.013811e+00   1.228600e-02   5.616526e-03   288884
  2.869605e+00   3.090268e+00   1.227401e-02   5.679976e-03   297602
  2.912071e+00   3.157797e+00   1.223046e-02   5.701299e-03   305520
  2.954561e+00   3.235183e+00   1.230079e-02   5.748786e-03   315976
  2.996984e+00   3.307634e+00   1.221089e-02   5.812632e-03   322778
  3.039488e+00   3.375993e+00   1.232008e-02   5.803784e-03   335372
  3.082114e+00   3.458132e+00   1.227327e-02   5.903135e-03   343464
  3.124654e+00   3.544668e+00   1.228282e-02   5.951124e-03   352912
  3.167174e+00   3.598235e+00   1.228199e-02   5.955351e-03   362666
  3.209689e+00   3.701445e+00   1.225476e-02   6.083914e-03   371884
  3.252186e+00   3.778614e+00   1.227971e-02   6.140265e-03   382280
  3.294633e+00   3.836395e+00   1.224302e-02   6.128466e-03   390888
  3.337059e+00   3.934871e+00   1.226867e-02   6.220961e-03   402234
  3.379565e+00   4.040162e+00   1.225933e-02   6.277157e-03   412576
  3.422105e+00   4.129804e+00   1.228715e-02   6.350288e-03   423732
  3.464636e+00   4.205354e+00   1.227257e-02   6.369361e-03   433624
  3.507180e+00   4.259571e+00   1.228881e-02   6.378997e-03   445154
  3.549739e+00   4.355914e+00   1.227656e-02   6.442781e-03   455584
  3.592238e+00   4.439751e+00   1.225887e-02   6.499949e-03   465588
  3.634685e+00   4.529486e+00   1.226065e-02   6.544876e-03   476762
  3.677219e+00   4.617880e+00   1.229242e-02   6.595474e-03   489552
  3.719789e+00   4.713215e+00   1.227853e-02   6.660333e-03   500328
  3.762251e+00   4.809427e+00   1.223705e-02   6.739970e-03   509852
  3.804741e+00   4.885454e+00   1.229735e-02   6.746329e-03   524234
  3.847275e+00   4.983195e+00   1.224781e-02   6.819264e-03   534104
  3.889779e+00   5.067392e+00   1.228211e-02   6.834258e-03   547048
  3.932320e+00   5.148632e+00   1.229545e-02   6.895696e-03   559328
  3.974872e+00   5.267359e+00   1.228346e-02   6.968397e-03   571326
  4.017355e+00   5.339875e+00   1.224147e-02   6.989969e-03   581920
  4.059804e+00   5.442854e+00   1.225835e-02   7.079849e-03   594832
  4.102282e+00   5.523236e+00   1.227222e-02   7.054867e-03   608048
  4.144825e+00   5.615874e+00   1.228101e-02   7.123583e-03   621526
  4.187356e+00   5.702428e+00   1.226445e-02   7.175398e-03   633240
  4.229822e+00   5.807345e+00   1.225981e-02   7.233652e-03   645472
  4.272346e+00   5.899533e+00   1.230137e-02   7.253696e-03   660906
  4.314903e+00   5.979650e+00   1.227030e-02   7.280995e-03   672856
  4.357425e+00   6.077097e+00   1.226838e-02   7.347284e-03   685980
  4.399921e+00   6.165113e+00   1.227191e-02   7.361762e-03   699256
  4.442476e+00   6.259627e+00   1.229990e-02   7.398635e-03   714730
  4.484986e+00   6.338249e+00   1.223739e-02   7.443824e-03   725152
  4.527452e+00   6.471304e+00   1.227054e-02   7.533630e-03   740420
  4.569941e+00   6.546878e+00   1.227636e-02   7.560727e-03   754312
  4.612456e+00   6.632114e+00   1.227959e-02   7.569230e-03   769114
  4.654996e+00   6.737559e+00   1.227684e-02   7.599759e-03   783488
  4.697459e+00   6.833174e+00   1.223560e-02   7.670713e-03   794968
  4.739925e+00   6.920305e+00   1.228043e-02   7.689424e-03   812366
  4.782438e+00   7.019189e+00   1.226054e-02   7.738352e-03   825976
  4.825000e+00   7.107227e+00   1.230088e-02   7.745727e-03   843352
  4.867591e+00   7.207381e+00   1.229290e-02   7.767694e-03   857280
  4.910094e+00   7.308644e+00   1.225276e-02   7.865353e-03   869542
  4.952587e+00   7.389003e+00   1.228301e-02   7.841557e-03   887128
  4.995087e+00   7.501552e+00   1.225266e-02   7.905510e-03   900032
  5.037553e+00   7.596269e+00   1.226951e-02   7.954572e-03   916560
  5.080018e+00   7.693280e+00   1.224713e-02   7.974758e-03   930922
  5.122540e+00   7.785529e+00   1.228718e-02   7.997430e-03   949844
  5.165149e+00   7.881467e+00   1.230776e-02   8.022768e-03   966736
  5.207698e+00   7.998934e+00   1.226328e-02   8.079648e-03   978776
  5.250149e+00   8.069957e+00   1.225655e-02   8.085768e-03   994522
  5.292642e+00   8.165346e+00   1.227563e-02   8.105272e-03   1012420
  5.335176e+00   8.267474e+00   1.228639e-02   8.158399e-03   1029408
  5.377640e+00   8.365589e+00   1.223362e-02   8.192274e-03   1041658
  5.420127e+00   8.465789e+00   1.228953e-02   8.214592e-03   1063520
  5.462635e+00   8.548866e+00   1.224276e-02   8.210081e-03   1075808
  5.505175e+00   8.646168e+00   1.232008e-02   8.250901e-03   1098956
  5.547712e+00   8.751807e+00   1.224668e-02   8.321492e-03   1109810
  5.590179e+00   8.836583e+00   1.226115e-02   8.309182e-03   1128608
  5.632713e+00   8.959550e+00   1.229436e-02   8.344264e-03   1148264
  5.675250e+00   9.033657e+00   1.227167e-02   8.371247e-03   1163252
  5.717744e+00   9.148736e+00   1.226828e-02   8.424853e-03   1181042
  5.760239e+00   9.229087e+00   1.225730e-02   8.436159e-03   1197848
  5.802769e+00   9.329366e+00   1.229495e-02   8.449242e-03   1218848
  5.845291e+00   9.412252e+00   1.225944e-02   8.481935e-03   1232916
  5.887780e+00   9.498395e+00   1.227538e-02   8.488118e-03   1253002
  5.930266e+00   9.607047e+00   1.224914e-02   8.516673e-03   1268576
  5.972763e+00   9.698866e+00   1.228621e-02   8.530766e-03   1290128
  6.015287e+00   9.803285e+00   1.227337e-02   8.574249e-03   1307402
  6.057820e+00   9.888727e+00   1.227649e-02   8.583014e-03   1327028
  6.100333e+00   9.974645e+00   1.225988e-02   8.598437e-03   1343648
  6.142842e+00   1.008685e+01   1.228087e-02   8.636705e-03   1364096
  6.185363e+00   1.017222e+01   1.227580e-02   8.645434e-03   1382730
  6.227896e+00   1.025451e+01   1.227503e-02   8.665056e-03   1402164
  6.270416e+00   1.037215e+01   1.227264e-02   8.701190e-03   1420464
  6.312883e+00   1.046254e+01   1.225519e-02   8.721964e-03   1437368
  6.355387e+00   1.054578e+01   1.228857e-02   8.722595e-03   1461530
  6.397919e+00   1.065786e+01   1.226028e-02   8.771371e-03   1478264
  6.440432e+00   1.072343e+01   1.227561e-02   8.772970e-03   1499356
  6.482926e+00   1.082127e+01   1.226095e-02   8.787161e-03   1517016
  6.525439e+00   1.092140e+01   1.228340e-02   8.777619e-03   1540090
  6.567953e+00   1.101989e+01   1.226146e-02   8.830748e-03   1557360
  6.610434e+00   1.107409e+01   1.226770e-02   8.795157e-03   1577780
  6.652969e+00   1.119265e+01   1.230043e-02   8.812317e-03   1602578
  6.695499e+00   1.127366e+01   1.225417e-02   8.883885e-03   1617672
  6.737992e+00   1.134989e+01   1.227613e-02   8.861793e-03   1641016
  6.780486e+00   1.143544e+01   1.226032e-02   8.876747e-03   1659416
  6.822983e+00   1.154281e+01   1.227372e-02   8.914443e-03   1682670
  6.865529e+00   1.160024e+01   1.228276e-02   8.889443e-03   1705256
  6.908096e+00   1.167409e+01   1.228756e-02   8.879258e-03   1726312
  6.950582e+00   1.176798e+01   1.225056e-02   8.922291e-03   1741880
  6.993044e+00   1.187416e+01   1.226862e-02   8.940226e-03   1766454
  7.035588e+00   1.196443e+01   1.229242e-02   8.939735e-03   1791784
  7.078111e+00   1.206559e+01   1.225558e-02   8.973909e-03   1807712
  7.120554e+00   1.211923e+01   1.225110e-02   8.967395e-03   1829002
  7.163037e+00   1.220260e+01   1.226905e-02   8.966091e-03   1854216
  7.205602e+00   1.226270e+01   1.229852e-02   8.953146e-03   1880156
  7.248150e+00   1.237942e+01   1.227340e-02   8.980757e-03   1897568
  7.290651e+00   1.245990e+01   1.227390e-02   8.992197e-03   1920458
  7.333153e+00   1.252543e+01   1.226399e-02   8.974469e-03   1942208
  7.375659e+00   1.262241e+01   1.227125e-02   9.006294e-03   1965612
  7.418175e+00   1.271378e+01   1.227855e-02   9.014297e-03   1989000
  7.460671e+00   1.275330e+01   1.225786e-02   8.997348e-03   2009114
  7.503166e+00   1.286171e+01   1.226960e-02   8.989881e-03   2034464
  7.545695e+00   1.292133e+01   1.228070e-02   9.001609e-03   2058476
  7.588207e+00   1.300242e+01   1.227216e-02   9.027628e-03   2079648
  7.630693e+00   1.307861e+01   1.226356e-02   9.034142e-03   2102578
  7.673222e+00   1.317489e+01   1.228297e-02   9.017297e-03   2129928
  7.715766e+00   1.323441e+01   1.227893e-02   9.015909e-03   2152096
  7.758252e+00   1.331741e+01   1.225143e-02   9.030989e-03   2171142
  7.800741e+00   1.339410e+01   1.227660e-02   9.035430e-03   2200248
  7.843296e+00   1.347297e+01   1.228407e-02   9.025544e-03   2225216
  7.885842e+00   1.354201e+01   1.228377e-02   9.028213e-03   2248448
  7.928336e+00   1.361432e+01   1.225709e-02   9.052293e-03   2267942
  7.970840e+00   1.367809e+01   1.228420e-02   9.025551e-03   2298072
  8.013348e+00   1.376329e+01   1.225627e-02   9.030128e-03   2317272
  8.055842e+00   1.384131e+01   1.227899e-02   9.036396e-03   2345808
  8.098322e+00   1.391381e+01   1.224988e-02   9.042045e-03   2365650
  8.140823e+00   1.396568e+01   1.227972e-02   9.020460e-03   2396940
  8.183368e+00   1.406457e+01   1.227975e-02   9.041213e-03   2421272
  8.225892e+00   1.412030e+01   1.227360e-02   9.040394e-03   2444576
  8.268407e+00   1.420373e+01   1.227899e-02   9.030030e-03   2471490
  8.310912e+00   1.425898e+01   1.225942e-02   9.024065e-03   2493180
  8.353397e+00   1.433135e+01   1.227208e-02   9.025358e-03   2520952
  8.395888e+00   1.438565e+01   1.226128e-02   9.023174e-03   2544946
  8.438392e+00   1.446904e+01   1.227324e-02   9.011857e-03   2573856
  8.480922e+00   1.451150e+01   1.227611e-02   8.983343e-03   2600016
  8.523447e+00   1.458930e+01   1.227641e-02   9.008053e-03   2625484
  8.565959e+00   1.466224e+01   1.227232e-02   8.997685e-03   2651122
  8.608519e+00   1.471215e+01   1.229739e-02   8.997049e-03   2683488
  8.651014e+00   1.477177e+01   1.223786e-02   9.003389e-03   2696352
  8.693483e+00   1.484279e+01   1.228468e-02   8.964963e-03   2733020
  8.736008e+00   1.489394e+01   1.227012e-02   8.971813e-03   2757378
  8.778525e+00   1.495591e+01   1.227177e-02   8.957429e-03   2784864
  8.821036e+00   1.500042e+01   1.227124e-02   8.933077e-03   2811168
  8.863496e+00   1.508478e+01   1.224424e-02   8.961728e-03   2832274
  8.906020e+00   1.513102e+01   1.230244e-02   8.918974e-03   2873636
  8.948567e+00   1.522113e+01   1.225951e-02   8.950360e-03   2890496
  8.991066e+00   1.524260e+01   1.227940e-02   8.925765e-03   2921800
  9.033598e+00   1.530361e+01   1.228441e-02   8.903599e-03   2951298
  9.076126e+00   1.538551e+01   1.226510e-02   8.917059e-03   2975476
  9.118654e+00   1.541504e+01   1.228550e-02   8.893176e-03   3007728
  9.161142e+00   1.548236e+01   1.224754e-02   8.907157e-03   3025776
  9.203640e+00   1.554054e+01   1.229182e-02   8.875402e-03   3065762
  9.246160e+00   1.558941e+01   1.225283e-02   8.881524e-03   3084856
  9.288649e+00   1.564916e+01   1.227594e-02   8.864943e-03   3118044
  9.331129e+00   1.567653e+01   1.225728e-02   8.839585e-03   3141352
  9.373640e+00   1.575488e+01   1.228814e-02   8.831840e-03   3179274
  9.416185e+00   1.581126e+01   1.227073e-02   8.825592e-03   3204120
  9.458671e+00   1.584475e+01   1.225444e-02   8.828236e-03   3227900
  9.501151e+00   1.590518e+01   1.227489e-02   8.806378e-03   3262394
  9.543701e+00   1.597229e+01   1.228726e-02   8.800512e-03   3295680
  9.586236e+00   1.601288e+01   1.226866e-02   8.788473e-03   3319560
  9.628737e+00   1.608374e+01   1.227228e-02   8.790614e-03   3348972
  9.671240e+00   1.609850e+01   1.227416e-02   8.768774e-03   3379722
  9.713763e+00   1.614679e+01   1.227339e-02   8.734277e-03   3410720
  9.756299e+00   1.620647e+01   1.227807e-02   8.731996e-03   3441504
  9.798787e+00   1.625092e+01   1.225320e-02   8.739668e-03   3463624
  9.841266e+00   1.629692e+01   1.227217e-02   8.714024e-03   3499790
  9.883803e+00   1.632894e+01   1.228281e-02   8.671972e-03   3533560
  9.926350e+00   1.638869e+01   1.227932e-02   8.672557e-03   3561920
  9.968836e+00   1.644870e+01   1.225683e-02   8.694980e-03   3585208
  1.001132e+01   1.648726e+01   1.227674e-02   8.667386e-03   3622518
  1.005387e+01   1.651949e+01   1.228938e-02   8.631468e-03   3657584
  1.009637e+01   1.658291e+01   1.225003e-02   8.641555e-03   3676440
  1.013883e+01   1.660030e+01   1.226093e-02   8.601634e-03   3711282
  1.018134e+01   1.665410e+01   1.227505e-02   8.609398e-03   3747696
  1.022386e+01   1.668942e+01   1.226890e-02   8.583733e-03   3776188
  1.026640e+01   1.672023e+01   1.229793e-02   8.562327e-03   3815304
  1.030893e+01   1.675424e+01   1.225864e-02   8.549873e-03   3835370
  1.035143e+01   1.680359e+01   1.227570e-02   8.543817e-03   3873424
  1.039395e+01   1.682068e+01   1.227191e-02   8.513421e-03   3903420
  1.043647e+01   1.687347e+01   1.228014e-02   8.505557e-03   3937624
  1.047898e+01   1.688621e+01   1.226404e-02   8.463628e-03   3965658
  1.052150e+01   1.694853e+01   1.227921e-02   8.476645e-03   4002984
  1.056400e+01   1.696639e+01   1.226054e-02   8.455909e-03   4027928
  1.060647e+01   1.701944e+01   1.225976e-02   8.436806e-03   4059844
  1.064896e+01   1.705143e+01   1.227978e-02   8.437785e-03   4100338
  1.069151e+01   1.708175e+01   1.227651e-02   8.408726e-03   4132264
  1.073403e+01   1.713490e+01   1.227390e-02   8.390299e-03   4163216
  1.077652e+01   1.714926e+01   1.226459e-02   8.379509e-03   4193350
  1.081904e+01   1.719459e+01   1.228427e-02   8.355435e-03   4234456
  1.086156e+01   1.719468e+01   1.225632e-02   8.322646e-03   4257264
  1.090405e+01   1.722698e+01   1.227910e-02   8.312483e-03   4297352
  1.094656e+01   1.726344e+01   1.226998e-02   8.297630e-03   4328642
  1.098909e+01   1.729470e+01   1.228265e-02   8.268661e-03   4367948
  1.103158e+01   1.733575e+01   1.224720e-02   8.279846e-03   4388384
  1.107408e+01   1.735591e+01   1.228899e-02   8.238271e-03   4436648
  1.111661e+01   1.736745e+01   1.227199e-02   8.220966e-03   4465658
  1.115915e+01   1.740565e+01   1.227871e-02   8.198340e-03   4502948
  1.120165e+01   1.742632e+01   1.225915e-02   8.197185e-03   4528880
  1.124413e+01   1.747583e+01   1.226872e-02   8.188238e-03   4566290
  1.128665e+01   1.748151e+01   1.228262e-02   8.136617e-03   4606856
  1.132917e+01   1.751281e+01   1.226621e-02   8.128412e-03   4635380
  1.137166e+01   1.753216e+01   1.226853e-02   8.114961e-03   4670384
  1.141417e+01   1.755841e+01   1.227665e-02   8.097130e-03   4709258
  1.145672e+01   1.758823e+01   1.228130e-02   8.080128e-03   4747352
  1.149922e+01   1.757374e+01   1.225462e-02   8.046427e-03   4771664
  1.154171e+01   1.762439e+01   1.227440e-02   8.028397e-03   4813532
  1.158423e+01   1.762438e+01   1.228175e-02   8.005195e-03   4852322
  1.162677e+01   1.764437e+01   1.227605e-02   7.978511e-03   4886480
  1.166928e+01   1.768337e+01   1.226516e-02   7.976226e-03   4917248
  1.171175e+01   1.769859e+01   1.226039e-02   7.964670e-03   4950828
  1.175428e+01   1.771318e+01   1.229115e-02   7.914191e-03   5000170
  1.179682e+01   1.774321e+01   1.226743e-02   7.917268e-03   5026952
  1.183930e+01   1.774390e+01   1.225870e-02   7.875070e-03   5058752
  1.188178e+01   1.776544e+01   1.227096e-02   7.873720e-03   5100722
  1.192431e+01   1.779545e+01   1.227592e-02   7.844439e-03   5140124
  1.196682e+01   1.780804e+01   1.227175e-02   7.827332e-03   5174072
  1.200934e+01   1.781013e+01   1.227571e-02   7.796981e-03   5211608
  1.205185e+01   1.782512e+01   1.227167e-02   7.780851e-03   5247794
  1.209436e+01   1.783938e+01   1.226763e-02   7.762876e-03   5284196
  1.213689e+01   1.787712e+01   1.228663e-02   7.751315e-03   5328800
