# power spectrum of delta_N
# redshift z=2.989642
# k              Pk             sigma(k)       sigma(Pk)      count
  3.132125e-02   1.368535e-03   4.792454e-03   2.541968e-04   18
  6.745391e-02   1.556003e-02   1.159167e-02   1.563723e-03   152
  1.090113e-01   3.584536e-02   1.224347e-02   1.642240e-03   416
  1.497134e-01   5.879689e-02   1.165022e-02   2.203566e-03   770
  1.923472e-01   8.299432e-02   1.247860e-02   2.352238e-03   1364
  2.350444e-01   1.029241e-01   1.221820e-02   2.320043e-03   1976
  2.775930e-01   1.284156e-01   1.245022e-02   2.484568e-03   2792
  3.193857e-01   1.533853e-01   1.188722e-02   2.553504e-03   3578
  3.615292e-01   1.739328e-01   1.219808e-02   2.543251e-03   4724
  4.045273e-01   2.011676e-01   1.253838e-02   2.577919e-03   6032
  4.469941e-01   2.184465e-01   1.206640e-02   2.717949e-03   7072
  4.890810e-01   2.496892e-01   1.222555e-02   2.751284e-03   8634
  5.318886e-01   2.792151e-01   1.238102e-02   2.820178e-03   10336
  5.746708e-01   3.054782e-01   1.232804e-02   2.735523e-03   11940
  6.167490e-01   3.302591e-01   1.208586e-02   2.863083e-03   13490
  6.588740e-01   3.649816e-01   1.221778e-02   2.883289e-03   15656
  7.016595e-01   3.874780e-01   1.241043e-02   2.807384e-03   18008
  7.443680e-01   4.131717e-01   1.227786e-02   2.987783e-03   19964
  7.867827e-01   4.484462e-01   1.226437e-02   3.064902e-03   22354
  8.291404e-01   4.694170e-01   1.212327e-02   2.986721e-03   24648
  8.716536e-01   4.958143e-01   1.233244e-02   2.927977e-03   27592
  9.142068e-01   5.380476e-01   1.230127e-02   3.122988e-03   30152
  9.566749e-01   5.625526e-01   1.227622e-02   3.106706e-03   33046
  9.991233e-01   6.005900e-01   1.221538e-02   3.145502e-03   35992
  1.041693e+00   6.366079e-01   1.229906e-02   3.174163e-03   39304
  1.084289e+00   6.621636e-01   1.232858e-02   3.218405e-03   42608
  1.126820e+00   7.062916e-01   1.223307e-02   3.318582e-03   45758
  1.169340e+00   7.271798e-01   1.228914e-02   3.248538e-03   49536
  1.211695e+00   7.693030e-01   1.215683e-02   3.350484e-03   52488
  1.254054e+00   8.120291e-01   1.233851e-02   3.394167e-03   57034
  1.296605e+00   8.458817e-01   1.224458e-02   3.422469e-03   60648
  1.339187e+00   8.841321e-01   1.230532e-02   3.466616e-03   65044
  1.381689e+00   9.241801e-01   1.223104e-02   3.507348e-03   68720
  1.424202e+00   9.668353e-01   1.231312e-02   3.554535e-03   73538
  1.466870e+00   1.002725e+00   1.230776e-02   3.575335e-03   78080
  1.509304e+00   1.051495e+00   1.215944e-02   3.682011e-03   81572
  1.551677e+00   1.096974e+00   1.232495e-02   3.734102e-03   87248
  1.594353e+00   1.130874e+00   1.233837e-02   3.754476e-03   92266
  1.636929e+00   1.174150e+00   1.225268e-02   3.784283e-03   96696
  1.679216e+00   1.224182e+00   1.215041e-02   3.838340e-03   100904
  1.721516e+00   1.270961e+00   1.226207e-02   3.884392e-03   107036
  1.764192e+00   1.318769e+00   1.235795e-02   3.927744e-03   113362
  1.806923e+00   1.368286e+00   1.228837e-02   3.980640e-03   118176
  1.849351e+00   1.415675e+00   1.221864e-02   4.045804e-03   122944
  1.891857e+00   1.458663e+00   1.233203e-02   4.043028e-03   129902
  1.934420e+00   1.504774e+00   1.224691e-02   4.108754e-03   134944
  1.976863e+00   1.559903e+00   1.225992e-02   4.142696e-03   140952
  2.019285e+00   1.610639e+00   1.225865e-02   4.200625e-03   147072
  2.061737e+00   1.663391e+00   1.224320e-02   4.229260e-03   153382
  2.104357e+00   1.720097e+00   1.233049e-02   4.252968e-03   160952
  2.147003e+00   1.774523e+00   1.228118e-02   4.351580e-03   166640
  2.189431e+00   1.814968e+00   1.222861e-02   4.364178e-03   172448
  2.231915e+00   1.873499e+00   1.231031e-02   4.426139e-03   180594
  2.274471e+00   1.921744e+00   1.224284e-02   4.433983e-03   186556
  2.316888e+00   1.987514e+00   1.225358e-02   4.528483e-03   193528
  2.359297e+00   2.050100e+00   1.224273e-02   4.567780e-03   200626
  2.401844e+00   2.098146e+00   1.230642e-02   4.578086e-03   209256
  2.444460e+00   2.161518e+00   1.227865e-02   4.640752e-03   216020
  2.487004e+00   2.218167e+00   1.230299e-02   4.671108e-03   223768
  2.529444e+00   2.280330e+00   1.222313e-02   4.769207e-03   230234
  2.571955e+00   2.332788e+00   1.229969e-02   4.744941e-03   239800
  2.614499e+00   2.408231e+00   1.225221e-02   4.853507e-03   246568
  2.656957e+00   2.479159e+00   1.227331e-02   4.899860e-03   254828
  2.699414e+00   2.517681e+00   1.225769e-02   4.899331e-03   263074
  2.741981e+00   2.584415e+00   1.228604e-02   4.955673e-03   272312
  2.784554e+00   2.667214e+00   1.228079e-02   5.055846e-03   280376
  2.827093e+00   2.732786e+00   1.228600e-02   5.091339e-03   288884
  2.869605e+00   2.800784e+00   1.227401e-02   5.148206e-03   297602
  2.912071e+00   2.858368e+00   1.223046e-02   5.158555e-03   305520
  2.954561e+00   2.928830e+00   1.230079e-02   5.204780e-03   315976
  2.996984e+00   2.995076e+00   1.221089e-02   5.264830e-03   322778
  3.039488e+00   3.054477e+00   1.232008e-02   5.255595e-03   335372
  3.082114e+00   3.130457e+00   1.227327e-02   5.348056e-03   343464
  3.124654e+00   3.208566e+00   1.228282e-02   5.388267e-03   352912
  3.167174e+00   3.256437e+00   1.228199e-02   5.393757e-03   362666
  3.209689e+00   3.350585e+00   1.225476e-02   5.509011e-03   371884
  3.252186e+00   3.417592e+00   1.227971e-02   5.552324e-03   382280
  3.294633e+00   3.469440e+00   1.224302e-02   5.541057e-03   390888
  3.337059e+00   3.559394e+00   1.226867e-02   5.623105e-03   402234
  3.379565e+00   3.652274e+00   1.225933e-02   5.671508e-03   412576
  3.422105e+00   3.736245e+00   1.228715e-02   5.745186e-03   423732
  3.464636e+00   3.796525e+00   1.227257e-02   5.749549e-03   433624
  3.507180e+00   3.848312e+00   1.228881e-02   5.763633e-03   445154
  3.549739e+00   3.935809e+00   1.227656e-02   5.821627e-03   455584
  3.592238e+00   4.013373e+00   1.225887e-02   5.874528e-03   465588
  3.634685e+00   4.086705e+00   1.226065e-02   5.905353e-03   476762
  3.677219e+00   4.172686e+00   1.229242e-02   5.957057e-03   489552
  3.719789e+00   4.254845e+00   1.227853e-02   6.016031e-03   500328
  3.762251e+00   4.343245e+00   1.223705e-02   6.085093e-03   509852
  3.804741e+00   4.414546e+00   1.229735e-02   6.088868e-03   524234
  3.847275e+00   4.501275e+00   1.224781e-02   6.160031e-03   534104
  3.889779e+00   4.576251e+00   1.228211e-02   6.171036e-03   547048
  3.932320e+00   4.646066e+00   1.229545e-02   6.216279e-03   559328
  3.974872e+00   4.753740e+00   1.228346e-02   6.292425e-03   571326
  4.017355e+00   4.821863e+00   1.224147e-02   6.308812e-03   581920
  4.059804e+00   4.910803e+00   1.225835e-02   6.381603e-03   594832
  4.102282e+00   4.982386e+00   1.227222e-02   6.365300e-03   608048
  4.144825e+00   5.070335e+00   1.228101e-02   6.428484e-03   621526
  4.187356e+00   5.139928e+00   1.226445e-02   6.471576e-03   633240
  4.229822e+00   5.240896e+00   1.225981e-02   6.523658e-03   645472
  4.272346e+00   5.319829e+00   1.230137e-02   6.542559e-03   660906
  4.314903e+00   5.394973e+00   1.227030e-02   6.569340e-03   672856
  4.357425e+00   5.487024e+00   1.226838e-02   6.635715e-03   685980
  4.399921e+00   5.562032e+00   1.227191e-02   6.640676e-03   699256
  4.442476e+00   5.654990e+00   1.229990e-02   6.677072e-03   714730
  4.484986e+00   5.716386e+00   1.223739e-02   6.721238e-03   725152
  4.527452e+00   5.843521e+00   1.227054e-02   6.805077e-03   740420
  4.569941e+00   5.905417e+00   1.227636e-02   6.825223e-03   754312
  4.612456e+00   5.982718e+00   1.227959e-02   6.828295e-03   769114
  4.654996e+00   6.077641e+00   1.227684e-02   6.859417e-03   783488
  4.697459e+00   6.166591e+00   1.223560e-02   6.927463e-03   794968
  4.739925e+00   6.244143e+00   1.228043e-02   6.933922e-03   812366
  4.782438e+00   6.331913e+00   1.226054e-02   6.980805e-03   825976
  4.825000e+00   6.415624e+00   1.230088e-02   6.986418e-03   843352
  4.867591e+00   6.507067e+00   1.229290e-02   7.003123e-03   857280
  4.910094e+00   6.602809e+00   1.225276e-02   7.107354e-03   869542
  4.952587e+00   6.675672e+00   1.228301e-02   7.076976e-03   887128
  4.995087e+00   6.772934e+00   1.225266e-02   7.129311e-03   900032
  5.037553e+00   6.861753e+00   1.226951e-02   7.183812e-03   916560
  5.080018e+00   6.948824e+00   1.224713e-02   7.202996e-03   930922
  5.122540e+00   7.027697e+00   1.228718e-02   7.225192e-03   949844
  5.165149e+00   7.120415e+00   1.230776e-02   7.251976e-03   966736
  5.207698e+00   7.223988e+00   1.226328e-02   7.298301e-03   978776
  5.250149e+00   7.289087e+00   1.225655e-02   7.299214e-03   994522
  5.292642e+00   7.376890e+00   1.227563e-02   7.323622e-03   1012420
  5.335176e+00   7.465125e+00   1.228639e-02   7.365235e-03   1029408
  5.377640e+00   7.562493e+00   1.223362e-02   7.410475e-03   1041658
  5.420127e+00   7.652449e+00   1.228953e-02   7.430906e-03   1063520
  5.462635e+00   7.723986e+00   1.224276e-02   7.424238e-03   1075808
  5.505175e+00   7.817261e+00   1.232008e-02   7.460669e-03   1098956
  5.547712e+00   7.910283e+00   1.224668e-02   7.523724e-03   1109810
  5.590179e+00   7.994088e+00   1.226115e-02   7.513396e-03   1128608
  5.632713e+00   8.109824e+00   1.229436e-02   7.557086e-03   1148264
  5.675250e+00   8.165675e+00   1.227167e-02   7.567087e-03   1163252
  5.717744e+00   8.278313e+00   1.226828e-02   7.611582e-03   1181042
  5.760239e+00   8.347529e+00   1.225730e-02   7.635139e-03   1197848
  5.802769e+00   8.440032e+00   1.229495e-02   7.634704e-03   1218848
  5.845291e+00   8.521876e+00   1.225944e-02   7.675128e-03   1232916
  5.887780e+00   8.599904e+00   1.227538e-02   7.686315e-03   1253002
  5.930266e+00   8.699921e+00   1.224914e-02   7.717766e-03   1268576
  5.972763e+00   8.778274e+00   1.228621e-02   7.722582e-03   1290128
  6.015287e+00   8.867263e+00   1.227337e-02   7.754255e-03   1307402
  6.057820e+00   8.955325e+00   1.227649e-02   7.778925e-03   1327028
  6.100333e+00   9.025939e+00   1.225988e-02   7.785218e-03   1343648
  6.142842e+00   9.143930e+00   1.228087e-02   7.827996e-03   1364096
  6.185363e+00   9.216898e+00   1.227580e-02   7.829966e-03   1382730
  6.227896e+00   9.300509e+00   1.227503e-02   7.860686e-03   1402164
  6.270416e+00   9.395799e+00   1.227264e-02   7.878602e-03   1420464
  6.312883e+00   9.475770e+00   1.225519e-02   7.900559e-03   1437368
  6.355387e+00   9.562440e+00   1.228857e-02   7.907330e-03   1461530
  6.397919e+00   9.659634e+00   1.226028e-02   7.942162e-03   1478264
  6.440432e+00   9.723122e+00   1.227561e-02   7.961796e-03   1499356
  6.482926e+00   9.812490e+00   1.226095e-02   7.972194e-03   1517016
  6.525439e+00   9.900344e+00   1.228340e-02   7.964934e-03   1540090
  6.567953e+00   9.992610e+00   1.226146e-02   8.012559e-03   1557360
  6.610434e+00   1.004059e+01   1.226770e-02   7.973245e-03   1577780
  6.652969e+00   1.014485e+01   1.230043e-02   7.996996e-03   1602578
  6.695499e+00   1.022037e+01   1.225417e-02   8.056336e-03   1617672
  6.737992e+00   1.028958e+01   1.227613e-02   8.031399e-03   1641016
  6.780486e+00   1.037995e+01   1.226032e-02   8.057093e-03   1659416
  6.822983e+00   1.047257e+01   1.227372e-02   8.088332e-03   1682670
  6.865529e+00   1.052611e+01   1.228276e-02   8.077348e-03   1705256
  6.908096e+00   1.060296e+01   1.228756e-02   8.069675e-03   1726312
  6.950582e+00   1.069743e+01   1.225056e-02   8.122393e-03   1741880
  6.993044e+00   1.078102e+01   1.226862e-02   8.117435e-03   1766454
  7.035588e+00   1.086544e+01   1.229242e-02   8.118113e-03   1791784
  7.078111e+00   1.095940e+01   1.225558e-02   8.150200e-03   1807712
  7.120554e+00   1.101159e+01   1.225110e-02   8.147641e-03   1829002
  7.163037e+00   1.108090e+01   1.226905e-02   8.143760e-03   1854216
  7.205602e+00   1.114474e+01   1.229852e-02   8.134722e-03   1880156
  7.248150e+00   1.124207e+01   1.227340e-02   8.159571e-03   1897568
  7.290651e+00   1.132753e+01   1.227390e-02   8.167915e-03   1920458
  7.333153e+00   1.139172e+01   1.226399e-02   8.167008e-03   1942208
  7.375659e+00   1.148305e+01   1.227125e-02   8.194659e-03   1965612
  7.418175e+00   1.156032e+01   1.227855e-02   8.193588e-03   1989000
  7.460671e+00   1.160415e+01   1.225786e-02   8.184557e-03   2009114
  7.503166e+00   1.170850e+01   1.226960e-02   8.193401e-03   2034464
  7.545695e+00   1.175508e+01   1.228070e-02   8.182672e-03   2058476
  7.588207e+00   1.183940e+01   1.227216e-02   8.212637e-03   2079648
  7.630693e+00   1.191767e+01   1.226356e-02   8.227313e-03   2102578
  7.673222e+00   1.199906e+01   1.228297e-02   8.216356e-03   2129928
  7.715766e+00   1.205625e+01   1.227893e-02   8.213249e-03   2152096
  7.758252e+00   1.213755e+01   1.225143e-02   8.228625e-03   2171142
  7.800741e+00   1.220247e+01   1.227660e-02   8.226045e-03   2200248
  7.843296e+00   1.228406e+01   1.228407e-02   8.231070e-03   2225216
  7.885842e+00   1.235110e+01   1.228377e-02   8.238559e-03   2248448
  7.928336e+00   1.241782e+01   1.225709e-02   8.258777e-03   2267942
  7.970840e+00   1.248170e+01   1.228420e-02   8.246976e-03   2298072
  8.013348e+00   1.257183e+01   1.225627e-02   8.258276e-03   2317272
  8.055842e+00   1.264503e+01   1.227899e-02   8.257711e-03   2345808
  8.098322e+00   1.269836e+01   1.224988e-02   8.241849e-03   2365650
  8.140823e+00   1.274701e+01   1.227972e-02   8.234381e-03   2396940
  8.183368e+00   1.284833e+01   1.227975e-02   8.255584e-03   2421272
  8.225892e+00   1.290244e+01   1.227360e-02   8.256703e-03   2444576
  8.268407e+00   1.296694e+01   1.227899e-02   8.247058e-03   2471490
  8.310912e+00   1.303195e+01   1.225942e-02   8.252587e-03   2493180
  8.353397e+00   1.308085e+01   1.227208e-02   8.233601e-03   2520952
  8.395888e+00   1.314376e+01   1.226128e-02   8.246850e-03   2544946
  8.438392e+00   1.321622e+01   1.227324e-02   8.238917e-03   2573856
  8.480922e+00   1.327195e+01   1.227611e-02   8.214016e-03   2600016
  8.523447e+00   1.332875e+01   1.227641e-02   8.225664e-03   2625484
  8.565959e+00   1.340991e+01   1.227232e-02   8.226777e-03   2651122
  8.608519e+00   1.345974e+01   1.229739e-02   8.225043e-03   2683488
  8.651014e+00   1.351217e+01   1.223786e-02   8.237911e-03   2696352
  8.693483e+00   1.357578e+01   1.228468e-02   8.205402e-03   2733020
  8.736008e+00   1.363385e+01   1.227012e-02   8.208382e-03   2757378
  8.778525e+00   1.368726e+01   1.227177e-02   8.204545e-03   2784864
  8.821036e+00   1.374744e+01   1.227124e-02   8.199468e-03   2811168
  8.863496e+00   1.382244e+01   1.224424e-02   8.215864e-03   2832274
  8.906020e+00   1.386337e+01   1.230244e-02   8.168688e-03   2873636
  8.948567e+00   1.394055e+01   1.225951e-02   8.196318e-03   2890496
  8.991066e+00   1.396518e+01   1.227940e-02   8.164958e-03   2921800
  9.033598e+00   1.403894e+01   1.228441e-02   8.164954e-03   2951298
  9.076126e+00   1.411196e+01   1.226510e-02   8.176433e-03   2975476
  9.118654e+00   1.413928e+01   1.228550e-02   8.156422e-03   3007728
  9.161142e+00   1.419532e+01   1.224754e-02   8.166383e-03   3025776
  9.203640e+00   1.426710e+01   1.229182e-02   8.146180e-03   3065762
  9.246160e+00   1.431661e+01   1.225283e-02   8.150756e-03   3084856
  9.288649e+00   1.436145e+01   1.227594e-02   8.130386e-03   3118044
  9.331129e+00   1.439438e+01   1.225728e-02   8.119216e-03   3141352
  9.373640e+00   1.446849e+01   1.228814e-02   8.108272e-03   3179274
  9.416185e+00   1.452016e+01   1.227073e-02   8.112730e-03   3204120
  9.458671e+00   1.456215e+01   1.225444e-02   8.101698e-03   3227900
  9.501151e+00   1.461826e+01   1.227489e-02   8.095371e-03   3262394
  9.543701e+00   1.468394e+01   1.228726e-02   8.091783e-03   3295680
  9.586236e+00   1.472133e+01   1.226866e-02   8.081346e-03   3319560
  9.628737e+00   1.478190e+01   1.227228e-02   8.082658e-03   3348972
  9.671240e+00   1.480953e+01   1.227416e-02   8.069560e-03   3379722
  9.713763e+00   1.485492e+01   1.227339e-02   8.041941e-03   3410720
  9.756299e+00   1.491739e+01   1.227807e-02   8.043099e-03   3441504
  9.798787e+00   1.495780e+01   1.225320e-02   8.030999e-03   3463624
  9.841266e+00   1.500448e+01   1.227217e-02   8.028456e-03   3499790
  9.883803e+00   1.504812e+01   1.228281e-02   7.995788e-03   3533560
  9.926350e+00   1.509730e+01   1.227932e-02   7.992360e-03   3561920
  9.968836e+00   1.514831e+01   1.225683e-02   7.997180e-03   3585208
  1.001132e+01   1.518236e+01   1.227674e-02   7.977941e-03   3622518
  1.005387e+01   1.522273e+01   1.228938e-02   7.957569e-03   3657584
  1.009637e+01   1.527806e+01   1.225003e-02   7.964573e-03   3676440
  1.013883e+01   1.529733e+01   1.226093e-02   7.929000e-03   3711282
  1.018134e+01   1.534132e+01   1.227505e-02   7.931059e-03   3747696
  1.022386e+01   1.538482e+01   1.226890e-02   7.912738e-03   3776188
  1.026640e+01   1.540885e+01   1.229793e-02   7.885307e-03   3815304
  1.030893e+01   1.544692e+01   1.225864e-02   7.882894e-03   3835370
  1.035143e+01   1.548622e+01   1.227570e-02   7.871110e-03   3873424
  1.039395e+01   1.552483e+01   1.227191e-02   7.858799e-03   3903420
  1.043647e+01   1.556920e+01   1.228014e-02   7.856310e-03   3937624
  1.047898e+01   1.558231e+01   1.226404e-02   7.816601e-03   3965658
  1.052150e+01   1.564708e+01   1.227921e-02   7.830632e-03   4002984
  1.056400e+01   1.567326e+01   1.226054e-02   7.813571e-03   4027928
  1.060647e+01   1.570976e+01   1.225976e-02   7.790492e-03   4059844
  1.064896e+01   1.576172e+01   1.227978e-02   7.785275e-03   4100338
  1.069151e+01   1.578630e+01   1.227651e-02   7.767017e-03   4132264
  1.073403e+01   1.582767e+01   1.227390e-02   7.753767e-03   4163216
  1.077652e+01   1.585052e+01   1.226459e-02   7.741005e-03   4193350
  1.081904e+01   1.587878e+01   1.228427e-02   7.717002e-03   4234456
  1.086156e+01   1.588915e+01   1.225632e-02   7.692982e-03   4257264
  1.090405e+01   1.593123e+01   1.227910e-02   7.689335e-03   4297352
  1.094656e+01   1.595903e+01   1.226998e-02   7.665907e-03   4328642
  1.098909e+01   1.598836e+01   1.228265e-02   7.650865e-03   4367948
  1.103158e+01   1.603689e+01   1.224720e-02   7.655487e-03   4388384
  1.107408e+01   1.605181e+01   1.228899e-02   7.620408e-03   4436648
  1.111661e+01   1.606967e+01   1.227199e-02   7.602854e-03   4465658
  1.115915e+01   1.610778e+01   1.227871e-02   7.584948e-03   4502948
  1.120165e+01   1.612248e+01   1.225915e-02   7.585734e-03   4528880
  1.124413e+01   1.617432e+01   1.226872e-02   7.574981e-03   4566290
  1.128665e+01   1.618245e+01   1.228262e-02   7.540598e-03   4606856
  1.132917e+01   1.621105e+01   1.226621e-02   7.523944e-03   4635380
  1.137166e+01   1.621661e+01   1.226853e-02   7.501177e-03   4670384
  1.141417e+01   1.625329e+01   1.227665e-02   7.492156e-03   4709258
  1.145672e+01   1.627680e+01   1.228130e-02   7.470855e-03   4747352
  1.149922e+01   1.628565e+01   1.225462e-02   7.456188e-03   4771664
  1.154171e+01   1.632567e+01   1.227440e-02   7.438716e-03   4813532
  1.158423e+01   1.632682e+01   1.228175e-02   7.410413e-03   4852322
  1.162677e+01   1.635263e+01   1.227605e-02   7.395000e-03   4886480
  1.166928e+01   1.638919e+01   1.226516e-02   7.387216e-03   4917248
  1.171175e+01   1.640523e+01   1.226039e-02   7.385079e-03   4950828
  1.175428e+01   1.641914e+01   1.229115e-02   7.335453e-03   5000170
  1.179682e+01   1.644546e+01   1.226743e-02   7.336919e-03   5026952
  1.183930e+01   1.644804e+01   1.225870e-02   7.298783e-03   5058752
  1.188178e+01   1.648090e+01   1.227096e-02   7.303067e-03   5100722
  1.192431e+01   1.649932e+01   1.227592e-02   7.267119e-03   5140124
  1.196682e+01   1.652386e+01   1.227175e-02   7.261293e-03   5174072
  1.200934e+01   1.652075e+01   1.227571e-02   7.233808e-03   5211608
  1.205185e+01   1.654681e+01   1.227167e-02   7.219197e-03   5247794
  1.209436e+01   1.656618e+01   1.226763e-02   7.211757e-03   5284196
  1.213689e+01   1.658841e+01   1.228663e-02   7.187635e-03   5328800
