# power spectrum of delta
# redshift z=0.897999
# k              Pk             sigma(k)       sigma(Pk)      count
  3.132125e-02   5.484339e-03   4.792454e-03   1.022814e-03   18
  6.745391e-02   6.157498e-02   1.159167e-02   6.088688e-03   152
  1.090113e-01   1.441234e-01   1.224347e-02   6.761390e-03   416
  1.497134e-01   2.392214e-01   1.165022e-02   8.913928e-03   770
  1.923472e-01   3.456109e-01   1.247860e-02   9.607454e-03   1364
  2.350444e-01   4.660895e-01   1.221820e-02   1.033622e-02   1976
  2.775930e-01   5.928773e-01   1.245022e-02   1.148687e-02   2792
  3.193857e-01   7.490460e-01   1.188722e-02   1.239249e-02   3578
  3.615292e-01   8.804612e-01   1.219808e-02   1.293897e-02   4724
  4.045273e-01   1.042879e+00   1.253838e-02   1.340703e-02   6032
  4.469941e-01   1.185001e+00   1.206640e-02   1.430869e-02   7072
  4.890810e-01   1.409809e+00   1.222555e-02   1.543643e-02   8634
  5.318886e-01   1.655227e+00   1.238102e-02   1.624813e-02   10336
  5.746708e-01   1.843001e+00   1.232804e-02   1.696005e-02   11940
  6.167490e-01   2.079396e+00   1.208586e-02   1.772969e-02   13490
  6.588740e-01   2.353203e+00   1.221778e-02   1.915361e-02   15656
  7.016595e-01   2.654415e+00   1.241043e-02   1.978230e-02   18008
  7.443680e-01   2.964427e+00   1.227786e-02   2.109585e-02   19964
  7.867827e-01   3.217428e+00   1.226437e-02   2.150024e-02   22354
  8.291404e-01   3.588973e+00   1.212327e-02   2.274087e-02   24648
  8.716536e-01   3.910942e+00   1.233244e-02   2.365809e-02   27592
  9.142068e-01   4.275656e+00   1.230127e-02   2.451964e-02   30152
  9.566749e-01   4.633699e+00   1.227622e-02   2.541601e-02   33046
  9.991233e-01   4.962838e+00   1.221538e-02   2.612234e-02   35992
  1.041693e+00   5.520975e+00   1.229906e-02   2.791399e-02   39304
  1.084289e+00   5.791310e+00   1.232858e-02   2.802775e-02   42608
  1.126820e+00   6.344460e+00   1.223307e-02   2.976615e-02   45758
  1.169340e+00   6.817506e+00   1.228914e-02   3.050761e-02   49536
  1.211695e+00   7.271894e+00   1.215683e-02   3.172210e-02   52488
  1.254054e+00   7.802732e+00   1.233851e-02   3.263756e-02   57034
  1.296605e+00   8.234840e+00   1.224458e-02   3.356477e-02   60648
  1.339187e+00   8.806223e+00   1.230532e-02   3.461391e-02   65044
  1.381689e+00   9.234249e+00   1.223104e-02   3.519960e-02   68720
  1.424202e+00   9.745381e+00   1.231312e-02   3.595183e-02   73538
  1.466870e+00   1.044687e+01   1.230776e-02   3.737703e-02   78080
  1.509304e+00   1.092033e+01   1.215944e-02   3.826975e-02   81572
  1.551677e+00   1.152769e+01   1.232495e-02   3.923666e-02   87248
  1.594353e+00   1.211001e+01   1.233837e-02   3.965456e-02   92266
  1.636929e+00   1.267263e+01   1.225268e-02   4.062238e-02   96696
  1.679216e+00   1.336597e+01   1.215041e-02   4.211269e-02   100904
  1.721516e+00   1.394259e+01   1.226207e-02   4.276222e-02   107036
  1.764192e+00   1.462800e+01   1.235795e-02   4.361150e-02   113362
  1.806923e+00   1.527777e+01   1.228837e-02   4.445133e-02   118176
  1.849351e+00   1.588861e+01   1.221864e-02   4.531206e-02   122944
  1.891857e+00   1.657738e+01   1.233203e-02   4.588299e-02   129902
  1.934420e+00   1.729523e+01   1.224691e-02   4.742774e-02   134944
  1.976863e+00   1.790632e+01   1.225992e-02   4.763168e-02   140952
  2.019285e+00   1.864221e+01   1.225865e-02   4.879309e-02   147072
  2.061737e+00   1.910980e+01   1.224320e-02   4.908873e-02   153382
  2.104357e+00   1.997142e+01   1.233049e-02   4.970435e-02   160952
  2.147003e+00   2.038486e+01   1.228118e-02   5.002362e-02   166640
  2.189431e+00   2.126092e+01   1.222861e-02   5.128383e-02   172448
  2.231915e+00   2.187508e+01   1.231031e-02   5.154247e-02   180594
  2.274471e+00   2.267715e+01   1.224284e-02   5.260078e-02   186556
  2.316888e+00   2.329736e+01   1.225358e-02   5.288441e-02   193528
  2.359297e+00   2.414603e+01   1.224273e-02   5.359315e-02   200626
  2.401844e+00   2.472580e+01   1.230642e-02   5.415877e-02   209256
  2.444460e+00   2.545649e+01   1.227865e-02   5.542867e-02   216020
  2.487004e+00   2.615368e+01   1.230299e-02   5.546292e-02   223768
  2.529444e+00   2.684617e+01   1.222313e-02   5.577598e-02   230234
  2.571955e+00   2.750780e+01   1.229969e-02   5.615881e-02   239800
  2.614499e+00   2.819022e+01   1.225221e-02   5.688921e-02   246568
  2.656957e+00   2.871989e+01   1.227331e-02   5.711099e-02   254828
  2.699414e+00   2.952832e+01   1.225769e-02   5.767427e-02   263074
  2.741981e+00   3.020953e+01   1.228604e-02   5.784014e-02   272312
  2.784554e+00   3.092016e+01   1.228079e-02   5.831263e-02   280376
  2.827093e+00   3.181484e+01   1.228600e-02   5.931713e-02   288884
  2.869605e+00   3.238640e+01   1.227401e-02   5.926457e-02   297602
  2.912071e+00   3.290816e+01   1.223046e-02   5.967694e-02   305520
  2.954561e+00   3.355118e+01   1.230079e-02   5.947029e-02   315976
  2.996984e+00   3.438517e+01   1.221089e-02   6.072267e-02   322778
  3.039488e+00   3.509635e+01   1.232008e-02   6.068610e-02   335372
  3.082114e+00   3.577611e+01   1.227327e-02   6.093437e-02   343464
  3.124654e+00   3.659664e+01   1.228282e-02   6.151521e-02   352912
  3.167174e+00   3.703570e+01   1.228199e-02   6.147570e-02   362666
  3.209689e+00   3.765338e+01   1.225476e-02   6.174846e-02   371884
  3.252186e+00   3.849975e+01   1.227971e-02   6.203360e-02   382280
  3.294633e+00   3.906331e+01   1.224302e-02   6.240835e-02   390888
  3.337059e+00   3.983323e+01   1.226867e-02   6.298199e-02   402234
  3.379565e+00   4.027751e+01   1.225933e-02   6.283018e-02   412576
  3.422105e+00   4.096467e+01   1.228715e-02   6.268808e-02   423732
  3.464636e+00   4.156093e+01   1.227257e-02   6.302346e-02   433624
  3.507180e+00   4.210150e+01   1.228881e-02   6.310032e-02   445154
  3.549739e+00   4.305724e+01   1.227656e-02   6.388507e-02   455584
  3.592238e+00   4.353774e+01   1.225887e-02   6.377487e-02   465588
  3.634685e+00   4.416080e+01   1.226065e-02   6.404724e-02   476762
  3.677219e+00   4.479966e+01   1.229242e-02   6.379691e-02   489552
  3.719789e+00   4.538257e+01   1.227853e-02   6.410169e-02   500328
  3.762251e+00   4.591744e+01   1.223705e-02   6.423978e-02   509852
  3.804741e+00   4.658411e+01   1.229735e-02   6.420049e-02   524234
  3.847275e+00   4.718943e+01   1.224781e-02   6.450347e-02   534104
  3.889779e+00   4.781441e+01   1.228211e-02   6.486642e-02   547048
  3.932320e+00   4.827546e+01   1.229545e-02   6.448754e-02   559328
  3.974872e+00   4.885169e+01   1.228346e-02   6.457838e-02   571326
  4.017355e+00   4.942716e+01   1.224147e-02   6.479637e-02   581920
  4.059804e+00   4.995181e+01   1.225835e-02   6.483217e-02   594832
  4.102282e+00   5.059374e+01   1.227222e-02   6.490062e-02   608048
  4.144825e+00   5.123505e+01   1.228101e-02   6.495487e-02   621526
  4.187356e+00   5.160885e+01   1.226445e-02   6.494114e-02   633240
  4.229822e+00   5.212779e+01   1.225981e-02   6.490138e-02   645472
  4.272346e+00   5.266158e+01   1.230137e-02   6.481479e-02   660906
  4.314903e+00   5.332489e+01   1.227030e-02   6.499861e-02   672856
  4.357425e+00   5.390706e+01   1.226838e-02   6.508195e-02   685980
  4.399921e+00   5.442569e+01   1.227191e-02   6.507111e-02   699256
  4.442476e+00   5.485666e+01   1.229990e-02   6.483192e-02   714730
  4.484986e+00   5.537634e+01   1.223739e-02   6.510702e-02   725152
  4.527452e+00   5.585154e+01   1.227054e-02   6.512830e-02   740420
  4.569941e+00   5.654954e+01   1.227636e-02   6.510680e-02   754312
  4.612456e+00   5.697421e+01   1.227959e-02   6.497763e-02   769114
  4.654996e+00   5.741076e+01   1.227684e-02   6.478226e-02   783488
  4.697459e+00   5.786065e+01   1.223560e-02   6.497273e-02   794968
  4.739925e+00   5.846956e+01   1.228043e-02   6.484013e-02   812366
  4.782438e+00   5.897248e+01   1.226054e-02   6.502324e-02   825976
  4.825000e+00   5.958642e+01   1.230088e-02   6.486522e-02   843352
  4.867591e+00   6.009456e+01   1.229290e-02   6.487200e-02   857280
  4.910094e+00   6.036228e+01   1.225276e-02   6.486747e-02   869542
  4.952587e+00   6.091548e+01   1.228301e-02   6.452122e-02   887128
  4.995087e+00   6.127901e+01   1.225266e-02   6.461037e-02   900032
  5.037553e+00   6.181126e+01   1.226951e-02   6.455909e-02   916560
  5.080018e+00   6.220307e+01   1.224713e-02   6.442265e-02   930922
  5.122540e+00   6.284824e+01   1.228718e-02   6.451915e-02   949844
  5.165149e+00   6.323514e+01   1.230776e-02   6.439546e-02   966736
  5.207698e+00   6.363836e+01   1.226328e-02   6.439084e-02   978776
  5.250149e+00   6.414160e+01   1.225655e-02   6.429474e-02   994522
  5.292642e+00   6.453367e+01   1.227563e-02   6.417653e-02   1012420
  5.335176e+00   6.488849e+01   1.228639e-02   6.389621e-02   1029408
  5.377640e+00   6.540394e+01   1.223362e-02   6.390695e-02   1041658
  5.420127e+00   6.566963e+01   1.228953e-02   6.368514e-02   1063520
  5.462635e+00   6.627355e+01   1.224276e-02   6.386258e-02   1075808
  5.505175e+00   6.658405e+01   1.232008e-02   6.360290e-02   1098956
  5.547712e+00   6.696055e+01   1.224668e-02   6.354751e-02   1109810
  5.590179e+00   6.733838e+01   1.226115e-02   6.331877e-02   1128608
  5.632713e+00   6.781104e+01   1.229436e-02   6.326754e-02   1148264
  5.675250e+00   6.813086e+01   1.227167e-02   6.321014e-02   1163252
  5.717744e+00   6.864848e+01   1.226828e-02   6.318376e-02   1181042
  5.760239e+00   6.903472e+01   1.225730e-02   6.302104e-02   1197848
  5.802769e+00   6.927035e+01   1.229495e-02   6.278718e-02   1218848
  5.845291e+00   6.978620e+01   1.225944e-02   6.292057e-02   1232916
  5.887780e+00   7.004404e+01   1.227538e-02   6.247808e-02   1253002
  5.930266e+00   7.043593e+01   1.224914e-02   6.267689e-02   1268576
  5.972763e+00   7.070585e+01   1.228621e-02   6.227553e-02   1290128
  6.015287e+00   7.112068e+01   1.227337e-02   6.233309e-02   1307402
  6.057820e+00   7.139258e+01   1.227649e-02   6.194977e-02   1327028
  6.100333e+00   7.169454e+01   1.225988e-02   6.189745e-02   1343648
  6.142842e+00   7.203482e+01   1.228087e-02   6.161161e-02   1364096
  6.185363e+00   7.248597e+01   1.227580e-02   6.165181e-02   1382730
  6.227896e+00   7.275415e+01   1.227503e-02   6.152154e-02   1402164
  6.270416e+00   7.312071e+01   1.227264e-02   6.136699e-02   1420464
  6.312883e+00   7.312640e+01   1.225519e-02   6.103979e-02   1437368
  6.355387e+00   7.350462e+01   1.228857e-02   6.083324e-02   1461530
  6.397919e+00   7.385395e+01   1.226028e-02   6.069725e-02   1478264
  6.440432e+00   7.433766e+01   1.227561e-02   6.075579e-02   1499356
  6.482926e+00   7.456312e+01   1.226095e-02   6.055672e-02   1517016
  6.525439e+00   7.487381e+01   1.228340e-02   6.046582e-02   1540090
  6.567953e+00   7.523259e+01   1.226146e-02   6.028077e-02   1557360
  6.610434e+00   7.551155e+01   1.226770e-02   6.007675e-02   1577780
  6.652969e+00   7.575875e+01   1.230043e-02   5.981392e-02   1602578
  6.695499e+00   7.619975e+01   1.225417e-02   5.993259e-02   1617672
  6.737992e+00   7.636466e+01   1.227613e-02   5.964288e-02   1641016
  6.780486e+00   7.656866e+01   1.226032e-02   5.948167e-02   1659416
  6.822983e+00   7.693953e+01   1.227372e-02   5.928530e-02   1682670
  6.865529e+00   7.711986e+01   1.228276e-02   5.909740e-02   1705256
  6.908096e+00   7.751287e+01   1.228756e-02   5.904610e-02   1726312
  6.950582e+00   7.770531e+01   1.225056e-02   5.878985e-02   1741880
  6.993044e+00   7.788952e+01   1.226862e-02   5.863074e-02   1766454
  7.035588e+00   7.832169e+01   1.229242e-02   5.843045e-02   1791784
  7.078111e+00   7.840276e+01   1.225558e-02   5.834798e-02   1807712
  7.120554e+00   7.860519e+01   1.225110e-02   5.816126e-02   1829002
  7.163037e+00   7.895563e+01   1.226905e-02   5.808191e-02   1854216
  7.205602e+00   7.910418e+01   1.229852e-02   5.778565e-02   1880156
  7.248150e+00   7.942460e+01   1.227340e-02   5.759077e-02   1897568
  7.290651e+00   7.957192e+01   1.227390e-02   5.740393e-02   1920458
  7.333153e+00   7.989620e+01   1.226399e-02   5.747344e-02   1942208
  7.375659e+00   8.016669e+01   1.227125e-02   5.723100e-02   1965612
  7.418175e+00   8.036675e+01   1.227855e-02   5.688989e-02   1989000
  7.460671e+00   8.048494e+01   1.225786e-02   5.681942e-02   2009114
  7.503166e+00   8.069596e+01   1.226960e-02   5.650358e-02   2034464
  7.545695e+00   8.084029e+01   1.228070e-02   5.631869e-02   2058476
  7.588207e+00   8.107000e+01   1.227216e-02   5.624705e-02   2079648
  7.630693e+00   8.110705e+01   1.226356e-02   5.595316e-02   2102578
  7.673222e+00   8.142577e+01   1.228297e-02   5.581399e-02   2129928
  7.715766e+00   8.167963e+01   1.227893e-02   5.568943e-02   2152096
  7.758252e+00   8.179783e+01   1.225143e-02   5.542732e-02   2171142
  7.800741e+00   8.210015e+01   1.227660e-02   5.547992e-02   2200248
  7.843296e+00   8.220473e+01   1.228407e-02   5.507124e-02   2225216
  7.885842e+00   8.247176e+01   1.228377e-02   5.508899e-02   2248448
  7.928336e+00   8.256103e+01   1.225709e-02   5.484182e-02   2267942
  7.970840e+00   8.279188e+01   1.228420e-02   5.457078e-02   2298072
  8.013348e+00   8.276279e+01   1.225627e-02   5.434100e-02   2317272
  8.055842e+00   8.295005e+01   1.227899e-02   5.420441e-02   2345808
  8.098322e+00   8.299255e+01   1.224988e-02   5.403388e-02   2365650
  8.140823e+00   8.331059e+01   1.227972e-02   5.379093e-02   2396940
  8.183368e+00   8.342111e+01   1.227975e-02   5.364818e-02   2421272
  8.225892e+00   8.361864e+01   1.227360e-02   5.345903e-02   2444576
  8.268407e+00   8.375015e+01   1.227899e-02   5.332941e-02   2471490
  8.310912e+00   8.373122e+01   1.225942e-02   5.308953e-02   2493180
  8.353397e+00   8.394621e+01   1.227208e-02   5.292225e-02   2520952
  8.395888e+00   8.399232e+01   1.226128e-02   5.266966e-02   2544946
  8.438392e+00   8.415822e+01   1.227324e-02   5.243235e-02   2573856
  8.480922e+00   8.443489e+01   1.227611e-02   5.230482e-02   2600016
  8.523447e+00   8.448546e+01   1.227641e-02   5.219093e-02   2625484
  8.565959e+00   8.453080e+01   1.227232e-02   5.186939e-02   2651122
  8.608519e+00   8.463000e+01   1.229739e-02   5.164715e-02   2683488
  8.651014e+00   8.482512e+01   1.223786e-02   5.161683e-02   2696352
  8.693483e+00   8.494251e+01   1.228468e-02   5.142327e-02   2733020
  8.736008e+00   8.495884e+01   1.227012e-02   5.119403e-02   2757378
  8.778525e+00   8.511852e+01   1.227177e-02   5.103238e-02   2784864
  8.821036e+00   8.530498e+01   1.227124e-02   5.089663e-02   2811168
  8.863496e+00   8.535734e+01   1.224424e-02   5.072673e-02   2832274
  8.906020e+00   8.544435e+01   1.230244e-02   5.045327e-02   2873636
  8.948567e+00   8.542967e+01   1.225951e-02   5.021486e-02   2890496
  8.991066e+00   8.559500e+01   1.227940e-02   5.007466e-02   2921800
  9.033598e+00   8.559250e+01   1.228441e-02   4.978650e-02   2951298
  9.076126e+00   8.565196e+01   1.226510e-02   4.959782e-02   2975476
  9.118654e+00   8.583581e+01   1.228550e-02   4.950823e-02   3007728
  9.161142e+00   8.591918e+01   1.224754e-02   4.933571e-02   3025776
  9.203640e+00   8.590759e+01   1.229182e-02   4.906081e-02   3065762
  9.246160e+00   8.596541e+01   1.225283e-02   4.895123e-02   3084856
  9.288649e+00   8.606000e+01   1.227594e-02   4.873653e-02   3118044
  9.331129e+00   8.620602e+01   1.225728e-02   4.869942e-02   3141352
  9.373640e+00   8.611967e+01   1.228814e-02   4.827008e-02   3179274
  9.416185e+00   8.622224e+01   1.227073e-02   4.815822e-02   3204120
  9.458671e+00   8.615126e+01   1.225444e-02   4.788443e-02   3227900
  9.501151e+00   8.631959e+01   1.227489e-02   4.778011e-02   3262394
  9.543701e+00   8.622680e+01   1.228726e-02   4.747543e-02   3295680
  9.586236e+00   8.631599e+01   1.226866e-02   4.743646e-02   3319560
  9.628737e+00   8.643386e+01   1.227228e-02   4.724210e-02   3348972
  9.671240e+00   8.640046e+01   1.227416e-02   4.700653e-02   3379722
  9.713763e+00   8.644281e+01   1.227339e-02   4.683003e-02   3410720
  9.756299e+00   8.646957e+01   1.227807e-02   4.660307e-02   3441504
  9.798787e+00   8.646109e+01   1.225320e-02   4.641948e-02   3463624
  9.841266e+00   8.650783e+01   1.227217e-02   4.621615e-02   3499790
  9.883803e+00   8.651191e+01   1.228281e-02   4.610487e-02   3533560
  9.926350e+00   8.658240e+01   1.227932e-02   4.587316e-02   3561920
  9.968836e+00   8.673059e+01   1.225683e-02   4.582001e-02   3585208
  1.001132e+01   8.664939e+01   1.227674e-02   4.550017e-02   3622518
  1.005387e+01   8.671874e+01   1.228938e-02   4.538245e-02   3657584
  1.009637e+01   8.659033e+01   1.225003e-02   4.524505e-02   3676440
  1.013883e+01   8.664161e+01   1.226093e-02   4.501519e-02   3711282
  1.018134e+01   8.670816e+01   1.227505e-02   4.477337e-02   3747696
  1.022386e+01   8.663025e+01   1.226890e-02   4.458640e-02   3776188
  1.026640e+01   8.669222e+01   1.229793e-02   4.443309e-02   3815304
  1.030893e+01   8.665559e+01   1.225864e-02   4.432126e-02   3835370
  1.035143e+01   8.665658e+01   1.227570e-02   4.407033e-02   3873424
  1.039395e+01   8.663857e+01   1.227191e-02   4.380362e-02   3903420
  1.043647e+01   8.660711e+01   1.228014e-02   4.359978e-02   3937624
  1.047898e+01   8.666244e+01   1.226404e-02   4.352491e-02   3965658
  1.052150e+01   8.663352e+01   1.227921e-02   4.329639e-02   4002984
  1.056400e+01   8.647533e+01   1.226054e-02   4.305832e-02   4027928
  1.060647e+01   8.650843e+01   1.225976e-02   4.289531e-02   4059844
  1.064896e+01   8.653734e+01   1.227978e-02   4.275571e-02   4100338
  1.069151e+01   8.648877e+01   1.227651e-02   4.256886e-02   4132264
  1.073403e+01   8.638913e+01   1.227390e-02   4.234447e-02   4163216
  1.077652e+01   8.632599e+01   1.226459e-02   4.218732e-02   4193350
  1.081904e+01   8.633466e+01   1.228427e-02   4.202382e-02   4234456
  1.086156e+01   8.623410e+01   1.225632e-02   4.185557e-02   4257264
  1.090405e+01   8.638301e+01   1.227910e-02   4.163657e-02   4297352
  1.094656e+01   8.632312e+01   1.226998e-02   4.147080e-02   4328642
  1.098909e+01   8.613689e+01   1.228265e-02   4.126791e-02   4367948
  1.103158e+01   8.606599e+01   1.224720e-02   4.108019e-02   4388384
  1.107408e+01   8.610392e+01   1.228899e-02   4.090020e-02   4436648
  1.111661e+01   8.595902e+01   1.227199e-02   4.066336e-02   4465658
  1.115915e+01   8.587035e+01   1.227871e-02   4.046200e-02   4502948
  1.120165e+01   8.594949e+01   1.225915e-02   4.038557e-02   4528880
  1.124413e+01   8.582726e+01   1.226872e-02   4.018147e-02   4566290
  1.128665e+01   8.583946e+01   1.228262e-02   4.001577e-02   4606856
  1.132917e+01   8.583305e+01   1.226621e-02   3.986680e-02   4635380
  1.137166e+01   8.575999e+01   1.226853e-02   3.970510e-02   4670384
  1.141417e+01   8.575106e+01   1.227665e-02   3.952911e-02   4709258
  1.145672e+01   8.554093e+01   1.228130e-02   3.928816e-02   4747352
  1.149922e+01   8.550820e+01   1.225462e-02   3.912084e-02   4771664
  1.154171e+01   8.539143e+01   1.227440e-02   3.887469e-02   4813532
  1.158423e+01   8.536506e+01   1.228175e-02   3.872109e-02   4852322
  1.162677e+01   8.527931e+01   1.227605e-02   3.854631e-02   4886480
  1.166928e+01   8.524533e+01   1.226516e-02   3.845462e-02   4917248
  1.171175e+01   8.508689e+01   1.226039e-02   3.826932e-02   4950828
  1.175428e+01   8.503209e+01   1.229115e-02   3.804485e-02   5000170
  1.179682e+01   8.503651e+01   1.226743e-02   3.789123e-02   5026952
  1.183930e+01   8.479102e+01   1.225870e-02   3.772147e-02   5058752
  1.188178e+01   8.484833e+01   1.227096e-02   3.759918e-02   5100722
  1.192431e+01   8.462586e+01   1.227592e-02   3.733712e-02   5140124
  1.196682e+01   8.460817e+01   1.227175e-02   3.721939e-02   5174072
  1.200934e+01   8.458728e+01   1.227571e-02   3.710216e-02   5211608
  1.205185e+01   8.434628e+01   1.227167e-02   3.680863e-02   5247794
  1.209436e+01   8.433004e+01   1.226763e-02   3.668481e-02   5284196
  1.213689e+01   8.422336e+01   1.228663e-02   3.649844e-02   5328800
