# power spectrum of delta
# redshift z=29.768368
# k              Pk             sigma(k)       sigma(Pk)      count
  3.132125e-02   2.361551e-05   4.792454e-03   4.371386e-06   18
  6.745391e-02   2.691458e-04   1.159167e-02   2.731926e-05   152
  1.090113e-01   6.096743e-04   1.224347e-02   2.754040e-05   416
  1.497134e-01   9.992962e-04   1.165022e-02   3.749966e-05   770
  1.923472e-01   1.411287e-03   1.247860e-02   3.965698e-05   1364
  2.350444e-01   1.659822e-03   1.221820e-02   3.773239e-05   1976
  2.775930e-01   2.072460e-03   1.245022e-02   3.961236e-05   2792
  3.193857e-01   2.382650e-03   1.188722e-02   4.123786e-05   3578
  3.615292e-01   2.723833e-03   1.219808e-02   4.028417e-05   4724
  4.045273e-01   3.061716e-03   1.253838e-02   3.997415e-05   6032
  4.469941e-01   3.336921e-03   1.206640e-02   4.028870e-05   7072
  4.890810e-01   3.614081e-03   1.222555e-02   3.976226e-05   8634
  5.318886e-01   3.965913e-03   1.238102e-02   3.924558e-05   10336
  5.746708e-01   4.205444e-03   1.232804e-02   3.787359e-05   11940
  6.167490e-01   4.445638e-03   1.208586e-02   3.864512e-05   13490
  6.588740e-01   4.712449e-03   1.221778e-02   3.715061e-05   15656
  7.016595e-01   4.915666e-03   1.241043e-02   3.699894e-05   18008
  7.443680e-01   5.166845e-03   1.227786e-02   3.669569e-05   19964
  7.867827e-01   5.370797e-03   1.226437e-02   3.587906e-05   22354
  8.291404e-01   5.541427e-03   1.212327e-02   3.553652e-05   24648
  8.716536e-01   5.784709e-03   1.233244e-02   3.480030e-05   27592
  9.142068e-01   5.987114e-03   1.230127e-02   3.406973e-05   30152
  9.566749e-01   6.174586e-03   1.227622e-02   3.384828e-05   33046
  9.991233e-01   6.432814e-03   1.221538e-02   3.434781e-05   35992
  1.041693e+00   6.605259e-03   1.229906e-02   3.336811e-05   39304
  1.084289e+00   6.916847e-03   1.232858e-02   3.334099e-05   42608
  1.126820e+00   6.944953e-03   1.223307e-02   3.282639e-05   45758
  1.169340e+00   7.156759e-03   1.228914e-02   3.228138e-05   49536
  1.211695e+00   7.345420e-03   1.215683e-02   3.246672e-05   52488
  1.254054e+00   7.505131e-03   1.233851e-02   3.170621e-05   57034
  1.296605e+00   7.533946e-03   1.224458e-02   3.050338e-05   60648
  1.339187e+00   7.809519e-03   1.230532e-02   3.084619e-05   65044
  1.381689e+00   8.067299e-03   1.223104e-02   3.069207e-05   68720
  1.424202e+00   8.170213e-03   1.231312e-02   3.010383e-05   73538
  1.466870e+00   8.276161e-03   1.230776e-02   2.962650e-05   78080
  1.509304e+00   8.490655e-03   1.215944e-02   2.967228e-05   81572
  1.551677e+00   8.564263e-03   1.232495e-02   2.911125e-05   87248
  1.594353e+00   8.705071e-03   1.233837e-02   2.866431e-05   92266
  1.636929e+00   8.896104e-03   1.225268e-02   2.859375e-05   96696
  1.679216e+00   9.017404e-03   1.215041e-02   2.848412e-05   100904
  1.721516e+00   9.132537e-03   1.226207e-02   2.822927e-05   107036
  1.764192e+00   9.245992e-03   1.235795e-02   2.741846e-05   113362
  1.806923e+00   9.366964e-03   1.228837e-02   2.727926e-05   118176
  1.849351e+00   9.613597e-03   1.221864e-02   2.748616e-05   122944
  1.891857e+00   9.735138e-03   1.233203e-02   2.700895e-05   129902
  1.934420e+00   9.787345e-03   1.224691e-02   2.669399e-05   134944
  1.976863e+00   9.942080e-03   1.225992e-02   2.650988e-05   140952
  2.019285e+00   1.002375e-02   1.225865e-02   2.632778e-05   147072
  2.061737e+00   1.015664e-02   1.224320e-02   2.588227e-05   153382
  2.104357e+00   1.024319e-02   1.233049e-02   2.563284e-05   160952
  2.147003e+00   1.035310e-02   1.228118e-02   2.537302e-05   166640
  2.189431e+00   1.047471e-02   1.222861e-02   2.527329e-05   172448
  2.231915e+00   1.058961e-02   1.231031e-02   2.484542e-05   180594
  2.274471e+00   1.075059e-02   1.224284e-02   2.489737e-05   186556
  2.316888e+00   1.083129e-02   1.225358e-02   2.475064e-05   193528
  2.359297e+00   1.095410e-02   1.224273e-02   2.459837e-05   200626
  2.401844e+00   1.099237e-02   1.230642e-02   2.423938e-05   209256
  2.444460e+00   1.114602e-02   1.227865e-02   2.402135e-05   216020
  2.487004e+00   1.130866e-02   1.230299e-02   2.399422e-05   223768
  2.529444e+00   1.139446e-02   1.222313e-02   2.384634e-05   230234
  2.571955e+00   1.146668e-02   1.229969e-02   2.341386e-05   239800
  2.614499e+00   1.147471e-02   1.225221e-02   2.321698e-05   246568
  2.656957e+00   1.169690e-02   1.227331e-02   2.325311e-05   254828
  2.699414e+00   1.172414e-02   1.225769e-02   2.285346e-05   263074
  2.741981e+00   1.186482e-02   1.228604e-02   2.271031e-05   272312
  2.784554e+00   1.194868e-02   1.228079e-02   2.259154e-05   280376
  2.827093e+00   1.202612e-02   1.228600e-02   2.240916e-05   288884
  2.869605e+00   1.209966e-02   1.227401e-02   2.225383e-05   297602
  2.912071e+00   1.213530e-02   1.223046e-02   2.197190e-05   305520
  2.954561e+00   1.223961e-02   1.230079e-02   2.183089e-05   315976
  2.996984e+00   1.228947e-02   1.221089e-02   2.176770e-05   322778
  3.039488e+00   1.250828e-02   1.232008e-02   2.165904e-05   335372
  3.082114e+00   1.251136e-02   1.227327e-02   2.142249e-05   343464
  3.124654e+00   1.259617e-02   1.228282e-02   2.111366e-05   352912
  3.167174e+00   1.267037e-02   1.228199e-02   2.106818e-05   362666
  3.209689e+00   1.279711e-02   1.225476e-02   2.098916e-05   371884
  3.252186e+00   1.287048e-02   1.227971e-02   2.085748e-05   382280
  3.294633e+00   1.296398e-02   1.224302e-02   2.070716e-05   390888
  3.337059e+00   1.296897e-02   1.226867e-02   2.035676e-05   402234
  3.379565e+00   1.305180e-02   1.225933e-02   2.024731e-05   412576
  3.422105e+00   1.312724e-02   1.228715e-02   2.008592e-05   423732
  3.464636e+00   1.321850e-02   1.227257e-02   2.003820e-05   433624
  3.507180e+00   1.323043e-02   1.228881e-02   1.982486e-05   445154
  3.549739e+00   1.335345e-02   1.227656e-02   1.982549e-05   455584
  3.592238e+00   1.339372e-02   1.225887e-02   1.961208e-05   465588
  3.634685e+00   1.346535e-02   1.226065e-02   1.950405e-05   476762
  3.677219e+00   1.354854e-02   1.229242e-02   1.936620e-05   489552
  3.719789e+00   1.364785e-02   1.227853e-02   1.937402e-05   500328
  3.762251e+00   1.370362e-02   1.223705e-02   1.918344e-05   509852
  3.804741e+00   1.374073e-02   1.229735e-02   1.899136e-05   524234
  3.847275e+00   1.389139e-02   1.224781e-02   1.900153e-05   534104
  3.889779e+00   1.389518e-02   1.228211e-02   1.876575e-05   547048
  3.932320e+00   1.396556e-02   1.229545e-02   1.866357e-05   559328
  3.974872e+00   1.404469e-02   1.228346e-02   1.860738e-05   571326
  4.017355e+00   1.409999e-02   1.224147e-02   1.851991e-05   581920
  4.059804e+00   1.415709e-02   1.225835e-02   1.838076e-05   594832
  4.102282e+00   1.419896e-02   1.227222e-02   1.817689e-05   608048
  4.144825e+00   1.425057e-02   1.228101e-02   1.812013e-05   621526
  4.187356e+00   1.431120e-02   1.226445e-02   1.796490e-05   633240
  4.229822e+00   1.437204e-02   1.225981e-02   1.794643e-05   645472
  4.272346e+00   1.447338e-02   1.230137e-02   1.781254e-05   660906
  4.314903e+00   1.447972e-02   1.227030e-02   1.769246e-05   672856
  4.357425e+00   1.454213e-02   1.226838e-02   1.760615e-05   685980
  4.399921e+00   1.461290e-02   1.227191e-02   1.744651e-05   699256
  4.442476e+00   1.465357e-02   1.229990e-02   1.735317e-05   714730
  4.484986e+00   1.473436e-02   1.223739e-02   1.728320e-05   725152
  4.527452e+00   1.474154e-02   1.227054e-02   1.720157e-05   740420
  4.569941e+00   1.482077e-02   1.227636e-02   1.709248e-05   754312
  4.612456e+00   1.487623e-02   1.227959e-02   1.694906e-05   769114
  4.654996e+00   1.496811e-02   1.227684e-02   1.690009e-05   783488
  4.697459e+00   1.498265e-02   1.223560e-02   1.682672e-05   794968
  4.739925e+00   1.506803e-02   1.228043e-02   1.675399e-05   812366
  4.782438e+00   1.506721e-02   1.226054e-02   1.655413e-05   825976
  4.825000e+00   1.512803e-02   1.230088e-02   1.643998e-05   843352
  4.867591e+00   1.519733e-02   1.229290e-02   1.638124e-05   857280
  4.910094e+00   1.521069e-02   1.225276e-02   1.629738e-05   869542
  4.952587e+00   1.529119e-02   1.228301e-02   1.623735e-05   887128
  4.995087e+00   1.529344e-02   1.225266e-02   1.612894e-05   900032
  5.037553e+00   1.534463e-02   1.226951e-02   1.601915e-05   916560
  5.080018e+00   1.539954e-02   1.224713e-02   1.599931e-05   930922
  5.122540e+00   1.545978e-02   1.228718e-02   1.586551e-05   949844
  5.165149e+00   1.544674e-02   1.230776e-02   1.572111e-05   966736
  5.207698e+00   1.554603e-02   1.226328e-02   1.570540e-05   978776
  5.250149e+00   1.557743e-02   1.225655e-02   1.561658e-05   994522
  5.292642e+00   1.563860e-02   1.227563e-02   1.557089e-05   1012420
  5.335176e+00   1.565297e-02   1.228639e-02   1.541951e-05   1029408
  5.377640e+00   1.567212e-02   1.223362e-02   1.537703e-05   1041658
  5.420127e+00   1.577146e-02   1.228953e-02   1.534886e-05   1063520
  5.462635e+00   1.580622e-02   1.224276e-02   1.528732e-05   1075808
  5.505175e+00   1.585520e-02   1.232008e-02   1.514636e-05   1098956
  5.547712e+00   1.583642e-02   1.224668e-02   1.505264e-05   1109810
  5.590179e+00   1.590053e-02   1.226115e-02   1.496028e-05   1128608
  5.632713e+00   1.593845e-02   1.229436e-02   1.486682e-05   1148264
  5.675250e+00   1.598574e-02   1.227167e-02   1.482941e-05   1163252
  5.717744e+00   1.600843e-02   1.226828e-02   1.475533e-05   1181042
  5.760239e+00   1.604602e-02   1.225730e-02   1.468083e-05   1197848
  5.802769e+00   1.606344e-02   1.229495e-02   1.455761e-05   1218848
  5.845291e+00   1.611872e-02   1.225944e-02   1.452359e-05   1232916
  5.887780e+00   1.618320e-02   1.227538e-02   1.445567e-05   1253002
  5.930266e+00   1.619211e-02   1.224914e-02   1.440168e-05   1268576
  5.972763e+00   1.622345e-02   1.228621e-02   1.428407e-05   1290128
  6.015287e+00   1.623429e-02   1.227337e-02   1.421153e-05   1307402
  6.057820e+00   1.627190e-02   1.227649e-02   1.414250e-05   1327028
  6.100333e+00   1.630971e-02   1.225988e-02   1.405639e-05   1343648
  6.142842e+00   1.633480e-02   1.228087e-02   1.402514e-05   1364096
  6.185363e+00   1.634704e-02   1.227580e-02   1.391319e-05   1382730
  6.227896e+00   1.641834e-02   1.227503e-02   1.388994e-05   1402164
  6.270416e+00   1.641040e-02   1.227264e-02   1.379652e-05   1420464
  6.312883e+00   1.649479e-02   1.225519e-02   1.375763e-05   1437368
  6.355387e+00   1.647831e-02   1.228857e-02   1.363139e-05   1461530
  6.397919e+00   1.651130e-02   1.226028e-02   1.357834e-05   1478264
  6.440432e+00   1.654215e-02   1.227561e-02   1.351809e-05   1499356
  6.482926e+00   1.658709e-02   1.226095e-02   1.349817e-05   1517016
  6.525439e+00   1.665353e-02   1.228340e-02   1.344029e-05   1540090
  6.567953e+00   1.666920e-02   1.226146e-02   1.335070e-05   1557360
  6.610434e+00   1.669414e-02   1.226770e-02   1.329306e-05   1577780
  6.652969e+00   1.670450e-02   1.230043e-02   1.320683e-05   1602578
  6.695499e+00   1.674576e-02   1.225417e-02   1.317164e-05   1617672
  6.737992e+00   1.675461e-02   1.227613e-02   1.312705e-05   1641016
  6.780486e+00   1.675769e-02   1.226032e-02   1.302778e-05   1659416
  6.822983e+00   1.678752e-02   1.227372e-02   1.296258e-05   1682670
  6.865529e+00   1.680813e-02   1.228276e-02   1.288778e-05   1705256
  6.908096e+00   1.684041e-02   1.228756e-02   1.283382e-05   1726312
  6.950582e+00   1.686249e-02   1.225056e-02   1.277449e-05   1741880
  6.993044e+00   1.690526e-02   1.226862e-02   1.272221e-05   1766454
  7.035588e+00   1.694248e-02   1.229242e-02   1.268560e-05   1791784
  7.078111e+00   1.691350e-02   1.225558e-02   1.260318e-05   1807712
  7.120554e+00   1.695489e-02   1.225110e-02   1.254347e-05   1829002
  7.163037e+00   1.694697e-02   1.226905e-02   1.247375e-05   1854216
  7.205602e+00   1.701994e-02   1.229852e-02   1.241362e-05   1880156
  7.248150e+00   1.700795e-02   1.227340e-02   1.236157e-05   1897568
  7.290651e+00   1.702022e-02   1.227390e-02   1.232823e-05   1920458
  7.333153e+00   1.702039e-02   1.226399e-02   1.224169e-05   1942208
  7.375659e+00   1.707812e-02   1.227125e-02   1.220209e-05   1965612
  7.418175e+00   1.708778e-02   1.227855e-02   1.211764e-05   1989000
  7.460671e+00   1.710997e-02   1.225786e-02   1.209882e-05   2009114
  7.503166e+00   1.713410e-02   1.226960e-02   1.204039e-05   2034464
  7.545695e+00   1.716085e-02   1.228070e-02   1.198296e-05   2058476
  7.588207e+00   1.713234e-02   1.227216e-02   1.191727e-05   2079648
  7.630693e+00   1.717961e-02   1.226356e-02   1.187286e-05   2102578
  7.673222e+00   1.716810e-02   1.228297e-02   1.176992e-05   2129928
  7.715766e+00   1.718591e-02   1.227893e-02   1.174996e-05   2152096
  7.758252e+00   1.721882e-02   1.225143e-02   1.168576e-05   2171142
  7.800741e+00   1.723124e-02   1.227660e-02   1.166084e-05   2200248
  7.843296e+00   1.721239e-02   1.228407e-02   1.156105e-05   2225216
  7.885842e+00   1.723416e-02   1.228377e-02   1.150398e-05   2248448
  7.928336e+00   1.728161e-02   1.225709e-02   1.149663e-05   2267942
  7.970840e+00   1.727378e-02   1.228420e-02   1.143529e-05   2298072
  8.013348e+00   1.729450e-02   1.225627e-02   1.138738e-05   2317272
  8.055842e+00   1.733170e-02   1.227899e-02   1.136339e-05   2345808
  8.098322e+00   1.733667e-02   1.224988e-02   1.129582e-05   2365650
  8.140823e+00   1.732649e-02   1.227972e-02   1.121529e-05   2396940
  8.183368e+00   1.735400e-02   1.227975e-02   1.117960e-05   2421272
  8.225892e+00   1.735298e-02   1.227360e-02   1.113885e-05   2444576
  8.268407e+00   1.733884e-02   1.227899e-02   1.104729e-05   2471490
  8.310912e+00   1.736530e-02   1.225942e-02   1.103380e-05   2493180
  8.353397e+00   1.737602e-02   1.227208e-02   1.098043e-05   2520952
  8.395888e+00   1.740026e-02   1.226128e-02   1.093247e-05   2544946
  8.438392e+00   1.743286e-02   1.227324e-02   1.089717e-05   2573856
  8.480922e+00   1.741953e-02   1.227611e-02   1.083354e-05   2600016
  8.523447e+00   1.740597e-02   1.227641e-02   1.077491e-05   2625484
  8.565959e+00   1.744534e-02   1.227232e-02   1.075464e-05   2651122
  8.608519e+00   1.741270e-02   1.229739e-02   1.065347e-05   2683488
  8.651014e+00   1.745364e-02   1.223786e-02   1.065997e-05   2696352
  8.693483e+00   1.744352e-02   1.228468e-02   1.057295e-05   2733020
  8.736008e+00   1.746344e-02   1.227012e-02   1.053729e-05   2757378
  8.778525e+00   1.746374e-02   1.227177e-02   1.049469e-05   2784864
  8.821036e+00   1.746785e-02   1.227124e-02   1.045388e-05   2811168
  8.863496e+00   1.748282e-02   1.224424e-02   1.043180e-05   2832274
  8.906020e+00   1.749235e-02   1.230244e-02   1.035067e-05   2873636
  8.948567e+00   1.747001e-02   1.225951e-02   1.032251e-05   2890496
  8.991066e+00   1.748662e-02   1.227940e-02   1.026450e-05   2921800
  9.033598e+00   1.751912e-02   1.228441e-02   1.024679e-05   2951298
  9.076126e+00   1.746195e-02   1.226510e-02   1.015746e-05   2975476
  9.118654e+00   1.752998e-02   1.228550e-02   1.015272e-05   3007728
  9.161142e+00   1.752462e-02   1.224754e-02   1.012513e-05   3025776
  9.203640e+00   1.750366e-02   1.229182e-02   1.003772e-05   3065762
  9.246160e+00   1.753376e-02   1.225283e-02   1.001984e-05   3084856
  9.288649e+00   1.753154e-02   1.227594e-02   9.993830e-06   3118044
  9.331129e+00   1.753913e-02   1.225728e-02   9.928128e-06   3141352
  9.373640e+00   1.751840e-02   1.228814e-02   9.858048e-06   3179274
  9.416185e+00   1.751994e-02   1.227073e-02   9.832773e-06   3204120
  9.458671e+00   1.754450e-02   1.225444e-02   9.802588e-06   3227900
  9.501151e+00   1.755116e-02   1.227489e-02   9.759922e-06   3262394
  9.543701e+00   1.754205e-02   1.228726e-02   9.710512e-06   3295680
  9.586236e+00   1.755284e-02   1.226866e-02   9.685170e-06   3319560
  9.628737e+00   1.758358e-02   1.227228e-02   9.658390e-06   3348972
  9.671240e+00   1.755810e-02   1.227416e-02   9.608457e-06   3379722
  9.713763e+00   1.754445e-02   1.227339e-02   9.545164e-06   3410720
  9.756299e+00   1.754878e-02   1.227807e-02   9.511308e-06   3441504
  9.798787e+00   1.755321e-02   1.225320e-02   9.488042e-06   3463624
  9.841266e+00   1.754895e-02   1.227217e-02   9.437657e-06   3499790
  9.883803e+00   1.753671e-02   1.228281e-02   9.382913e-06   3533560
  9.926350e+00   1.755070e-02   1.227932e-02   9.345131e-06   3561920
  9.968836e+00   1.753157e-02   1.225683e-02   9.312854e-06   3585208
  1.001132e+01   1.755976e-02   1.227674e-02   9.280258e-06   3622518
  1.005387e+01   1.755197e-02   1.228938e-02   9.219680e-06   3657584
  1.009637e+01   1.754759e-02   1.225003e-02   9.193637e-06   3676440
  1.013883e+01   1.752076e-02   1.226093e-02   9.137030e-06   3711282
  1.018134e+01   1.753971e-02   1.227505e-02   9.120826e-06   3747696
  1.022386e+01   1.754598e-02   1.226890e-02   9.096130e-06   3776188
  1.026640e+01   1.752893e-02   1.229793e-02   9.035843e-06   3815304
  1.030893e+01   1.753329e-02   1.225864e-02   9.009406e-06   3835370
  1.035143e+01   1.753348e-02   1.227570e-02   8.964487e-06   3873424
  1.039395e+01   1.753642e-02   1.227191e-02   8.939862e-06   3903420
  1.043647e+01   1.754250e-02   1.228014e-02   8.896066e-06   3937624
  1.047898e+01   1.750258e-02   1.226404e-02   8.849684e-06   3965658
  1.052150e+01   1.752793e-02   1.227921e-02   8.831334e-06   4002984
  1.056400e+01   1.755098e-02   1.226054e-02   8.815122e-06   4027928
  1.060647e+01   1.751365e-02   1.225976e-02   8.757810e-06   4059844
  1.064896e+01   1.751243e-02   1.227978e-02   8.730789e-06   4100338
  1.069151e+01   1.750589e-02   1.227651e-02   8.675544e-06   4132264
  1.073403e+01   1.749628e-02   1.227390e-02   8.645920e-06   4163216
  1.077652e+01   1.748083e-02   1.226459e-02   8.604317e-06   4193350
  1.081904e+01   1.749366e-02   1.228427e-02   8.565508e-06   4234456
  1.086156e+01   1.746533e-02   1.225632e-02   8.537394e-06   4257264
  1.090405e+01   1.746356e-02   1.227910e-02   8.487324e-06   4297352
  1.094656e+01   1.747130e-02   1.226998e-02   8.457814e-06   4328642
  1.098909e+01   1.744642e-02   1.228265e-02   8.430715e-06   4367948
  1.103158e+01   1.745920e-02   1.224720e-02   8.409762e-06   4388384
  1.107408e+01   1.745554e-02   1.228899e-02   8.363303e-06   4436648
  1.111661e+01   1.743813e-02   1.227199e-02   8.328132e-06   4465658
  1.115915e+01   1.742456e-02   1.227871e-02   8.292488e-06   4502948
  1.120165e+01   1.742916e-02   1.225915e-02   8.273592e-06   4528880
  1.124413e+01   1.741066e-02   1.226872e-02   8.220273e-06   4566290
  1.128665e+01   1.741891e-02   1.228262e-02   8.196942e-06   4606856
  1.132917e+01   1.741478e-02   1.226621e-02   8.171991e-06   4635380
  1.137166e+01   1.740900e-02   1.226853e-02   8.144803e-06   4670384
  1.141417e+01   1.739816e-02   1.227665e-02   8.090973e-06   4709258
  1.145672e+01   1.736686e-02   1.228130e-02   8.055811e-06   4747352
  1.149922e+01   1.737312e-02   1.225462e-02   8.045336e-06   4771664
  1.154171e+01   1.737803e-02   1.227440e-02   8.006495e-06   4813532
  1.158423e+01   1.733448e-02   1.228175e-02   7.956861e-06   4852322
  1.162677e+01   1.735205e-02   1.227605e-02   7.941608e-06   4886480
  1.166928e+01   1.734114e-02   1.226516e-02   7.915948e-06   4917248
  1.171175e+01   1.734121e-02   1.226039e-02   7.887668e-06   4950828
  1.175428e+01   1.731486e-02   1.229115e-02   7.837820e-06   5000170
  1.179682e+01   1.730940e-02   1.226743e-02   7.808244e-06   5026952
  1.183930e+01   1.727260e-02   1.225870e-02   7.766289e-06   5058752
  1.188178e+01   1.727766e-02   1.227096e-02   7.741453e-06   5100722
  1.192431e+01   1.727992e-02   1.227592e-02   7.713478e-06   5140124
  1.196682e+01   1.728273e-02   1.227175e-02   7.688660e-06   5174072
  1.200934e+01   1.727430e-02   1.227571e-02   7.659179e-06   5211608
  1.205185e+01   1.725747e-02   1.227167e-02   7.626212e-06   5247794
  1.209436e+01   1.723584e-02   1.226763e-02   7.598032e-06   5284196
  1.213689e+01   1.721830e-02   1.228663e-02   7.558528e-06   5328800
