# power spectrum of delta_N
# redshift z=2.190379
# k              Pk             sigma(k)       sigma(Pk)      count
  3.132125e-02   2.113313e-03   4.792454e-03   3.929109e-04   18
  6.745391e-02   2.397252e-02   1.159167e-02   2.400819e-03   152
  1.090113e-01   5.546932e-02   1.224347e-02   2.554635e-03   416
  1.497134e-01   9.114992e-02   1.165022e-02   3.413264e-03   770
  1.923472e-01   1.291910e-01   1.247860e-02   3.653294e-03   1364
  2.350444e-01   1.634655e-01   1.221820e-02   3.668336e-03   1976
  2.775930e-01   2.046295e-01   1.245022e-02   3.966349e-03   2792
  3.193857e-01   2.477367e-01   1.188722e-02   4.104904e-03   3578
  3.615292e-01   2.818530e-01   1.219808e-02   4.113826e-03   4724
  4.045273e-01   3.288796e-01   1.253838e-02   4.202745e-03   6032
  4.469941e-01   3.595849e-01   1.206640e-02   4.461844e-03   7072
  4.890810e-01   4.158801e-01   1.222555e-02   4.582799e-03   8634
  5.318886e-01   4.713471e-01   1.238102e-02   4.726285e-03   10336
  5.746708e-01   5.202715e-01   1.232804e-02   4.660047e-03   11940
  6.167490e-01   5.666856e-01   1.208586e-02   4.893256e-03   13490
  6.588740e-01   6.358982e-01   1.221778e-02   5.063212e-03   15656
  7.016595e-01   6.845243e-01   1.241043e-02   4.936082e-03   18008
  7.443680e-01   7.334486e-01   1.227786e-02   5.307938e-03   19964
  7.867827e-01   8.016727e-01   1.226437e-02   5.463762e-03   22354
  8.291404e-01   8.506206e-01   1.212327e-02   5.425628e-03   24648
  8.716536e-01   9.129853e-01   1.233244e-02   5.387148e-03   27592
  9.142068e-01   9.928394e-01   1.230127e-02   5.673219e-03   30152
  9.566749e-01   1.049932e+00   1.227622e-02   5.811576e-03   33046
  9.991233e-01   1.129415e+00   1.221538e-02   5.936681e-03   35992
  1.041693e+00   1.208815e+00   1.229906e-02   6.020485e-03   39304
  1.084289e+00   1.272567e+00   1.232858e-02   6.203195e-03   42608
  1.126820e+00   1.350840e+00   1.223307e-02   6.352465e-03   45758
  1.169340e+00   1.408118e+00   1.228914e-02   6.332057e-03   49536
  1.211695e+00   1.509615e+00   1.215683e-02   6.612664e-03   52488
  1.254054e+00   1.587190e+00   1.233851e-02   6.637672e-03   57034
  1.296605e+00   1.675131e+00   1.224458e-02   6.760724e-03   60648
  1.339187e+00   1.751356e+00   1.230532e-02   6.800322e-03   65044
  1.381689e+00   1.847833e+00   1.223104e-02   7.015973e-03   68720
  1.424202e+00   1.953625e+00   1.231312e-02   7.212429e-03   73538
  1.466870e+00   2.046598e+00   1.230776e-02   7.323206e-03   78080
  1.509304e+00   2.136488e+00   1.215944e-02   7.491334e-03   81572
  1.551677e+00   2.244217e+00   1.232495e-02   7.643039e-03   87248
  1.594353e+00   2.351916e+00   1.233837e-02   7.759652e-03   92266
  1.636929e+00   2.425931e+00   1.225268e-02   7.785598e-03   96696
  1.679216e+00   2.553062e+00   1.215041e-02   7.999397e-03   100904
  1.721516e+00   2.662181e+00   1.226207e-02   8.214793e-03   107036
  1.764192e+00   2.781435e+00   1.235795e-02   8.252300e-03   113362
  1.806923e+00   2.899260e+00   1.228837e-02   8.425288e-03   118176
  1.849351e+00   3.027116e+00   1.221864e-02   8.608894e-03   122944
  1.891857e+00   3.134198e+00   1.233203e-02   8.703025e-03   129902
  1.934420e+00   3.258216e+00   1.224691e-02   8.887692e-03   134944
  1.976863e+00   3.366972e+00   1.225992e-02   8.993022e-03   140952
  2.019285e+00   3.499476e+00   1.225865e-02   9.146367e-03   147072
  2.061737e+00   3.642336e+00   1.224320e-02   9.304152e-03   153382
  2.104357e+00   3.772555e+00   1.233049e-02   9.348080e-03   160952
  2.147003e+00   3.889961e+00   1.228118e-02   9.459243e-03   166640
  2.189431e+00   3.996569e+00   1.222861e-02   9.649056e-03   172448
  2.231915e+00   4.164600e+00   1.231031e-02   9.774141e-03   180594
  2.274471e+00   4.268856e+00   1.224284e-02   9.908578e-03   186556
  2.316888e+00   4.436593e+00   1.225358e-02   1.013823e-02   193528
  2.359297e+00   4.575332e+00   1.224273e-02   1.032374e-02   200626
  2.401844e+00   4.748304e+00   1.230642e-02   1.042833e-02   209256
  2.444460e+00   4.879176e+00   1.227865e-02   1.050647e-02   216020
  2.487004e+00   5.024360e+00   1.230299e-02   1.062427e-02   223768
  2.529444e+00   5.201682e+00   1.222313e-02   1.085004e-02   230234
  2.571955e+00   5.310553e+00   1.229969e-02   1.081333e-02   239800
  2.614499e+00   5.478044e+00   1.225221e-02   1.100991e-02   246568
  2.656957e+00   5.676180e+00   1.227331e-02   1.121502e-02   254828
  2.699414e+00   5.767564e+00   1.225769e-02   1.126363e-02   263074
  2.741981e+00   5.916043e+00   1.228604e-02   1.134917e-02   272312
  2.784554e+00   6.110544e+00   1.228079e-02   1.151883e-02   280376
  2.827093e+00   6.270385e+00   1.228600e-02   1.168259e-02   288884
  2.869605e+00   6.413188e+00   1.227401e-02   1.171115e-02   297602
  2.912071e+00   6.615218e+00   1.223046e-02   1.189592e-02   305520
  2.954561e+00   6.746282e+00   1.230079e-02   1.199160e-02   315976
  2.996984e+00   6.913088e+00   1.221089e-02   1.215245e-02   322778
  3.039488e+00   7.096948e+00   1.232008e-02   1.226211e-02   335372
  3.082114e+00   7.274559e+00   1.227327e-02   1.242777e-02   343464
  3.124654e+00   7.430978e+00   1.228282e-02   1.251482e-02   352912
  3.167174e+00   7.598889e+00   1.228199e-02   1.261969e-02   362666
  3.209689e+00   7.755577e+00   1.225476e-02   1.271192e-02   371884
  3.252186e+00   7.942911e+00   1.227971e-02   1.283720e-02   382280
  3.294633e+00   8.090167e+00   1.224302e-02   1.293063e-02   390888
  3.337059e+00   8.262620e+00   1.226867e-02   1.300143e-02   402234
  3.379565e+00   8.464357e+00   1.225933e-02   1.317130e-02   412576
  3.422105e+00   8.631688e+00   1.228715e-02   1.325525e-02   423732
  3.464636e+00   8.817039e+00   1.227257e-02   1.339503e-02   433624
  3.507180e+00   8.988068e+00   1.228881e-02   1.344991e-02   445154
  3.549739e+00   9.163873e+00   1.227656e-02   1.357336e-02   455584
  3.592238e+00   9.341934e+00   1.225887e-02   1.376098e-02   465588
  3.634685e+00   9.514753e+00   1.226065e-02   1.377352e-02   476762
  3.677219e+00   9.690064e+00   1.229242e-02   1.381309e-02   489552
  3.719789e+00   9.883435e+00   1.227853e-02   1.397782e-02   500328
  3.762251e+00   1.006227e+01   1.223705e-02   1.408469e-02   509852
  3.804741e+00   1.026166e+01   1.229735e-02   1.416224e-02   524234
  3.847275e+00   1.048279e+01   1.224781e-02   1.433661e-02   534104
  3.889779e+00   1.058347e+01   1.228211e-02   1.431859e-02   547048
  3.932320e+00   1.083418e+01   1.229545e-02   1.450211e-02   559328
  3.974872e+00   1.099611e+01   1.228346e-02   1.454039e-02   571326
  4.017355e+00   1.118243e+01   1.224147e-02   1.464713e-02   581920
  4.059804e+00   1.136858e+01   1.225835e-02   1.473885e-02   594832
  4.102282e+00   1.151842e+01   1.227222e-02   1.474726e-02   608048
  4.144825e+00   1.171192e+01   1.228101e-02   1.486498e-02   621526
  4.187356e+00   1.188235e+01   1.226445e-02   1.492505e-02   633240
  4.229822e+00   1.206591e+01   1.225981e-02   1.498347e-02   645472
  4.272346e+00   1.229995e+01   1.230137e-02   1.513677e-02   660906
  4.314903e+00   1.249754e+01   1.227030e-02   1.523534e-02   672856
  4.357425e+00   1.266103e+01   1.226838e-02   1.532922e-02   685980
  4.399921e+00   1.284343e+01   1.227191e-02   1.539492e-02   699256
  4.442476e+00   1.298140e+01   1.229990e-02   1.535729e-02   714730
  4.484986e+00   1.315472e+01   1.223739e-02   1.545638e-02   725152
  4.527452e+00   1.336601e+01   1.227054e-02   1.552831e-02   740420
  4.569941e+00   1.356060e+01   1.227636e-02   1.562324e-02   754312
  4.612456e+00   1.370282e+01   1.227959e-02   1.563565e-02   769114
  4.654996e+00   1.395617e+01   1.227684e-02   1.581337e-02   783488
  4.697459e+00   1.410315e+01   1.223560e-02   1.587651e-02   794968
  4.739925e+00   1.427777e+01   1.228043e-02   1.583307e-02   812366
  4.782438e+00   1.447172e+01   1.226054e-02   1.594375e-02   825976
  4.825000e+00   1.462725e+01   1.230088e-02   1.592001e-02   843352
  4.867591e+00   1.478839e+01   1.229290e-02   1.598990e-02   857280
  4.910094e+00   1.496567e+01   1.225276e-02   1.601620e-02   869542
  4.952587e+00   1.517426e+01   1.228301e-02   1.611958e-02   887128
  4.995087e+00   1.532207e+01   1.225266e-02   1.613032e-02   900032
  5.037553e+00   1.559765e+01   1.226951e-02   1.637246e-02   916560
  5.080018e+00   1.572202e+01   1.224713e-02   1.626815e-02   930922
  5.122540e+00   1.585639e+01   1.228718e-02   1.629033e-02   949844
  5.165149e+00   1.606474e+01   1.230776e-02   1.633337e-02   966736
  5.207698e+00   1.623269e+01   1.226328e-02   1.642584e-02   978776
  5.250149e+00   1.638960e+01   1.225655e-02   1.643768e-02   994522
  5.292642e+00   1.656271e+01   1.227563e-02   1.647092e-02   1012420
  5.335176e+00   1.674286e+01   1.228639e-02   1.645138e-02   1029408
  5.377640e+00   1.694587e+01   1.223362e-02   1.661784e-02   1041658
  5.420127e+00   1.706086e+01   1.228953e-02   1.653739e-02   1063520
  5.462635e+00   1.728212e+01   1.224276e-02   1.664290e-02   1075808
  5.505175e+00   1.739720e+01   1.232008e-02   1.656554e-02   1098956
  5.547712e+00   1.758244e+01   1.224668e-02   1.669257e-02   1109810
  5.590179e+00   1.775507e+01   1.226115e-02   1.674192e-02   1128608
  5.632713e+00   1.789748e+01   1.229436e-02   1.673309e-02   1148264
  5.675250e+00   1.808423e+01   1.227167e-02   1.674314e-02   1163252
  5.717744e+00   1.821116e+01   1.226828e-02   1.675960e-02   1181042
  5.760239e+00   1.842984e+01   1.225730e-02   1.686570e-02   1197848
  5.802769e+00   1.856881e+01   1.229495e-02   1.681330e-02   1218848
  5.845291e+00   1.869444e+01   1.225944e-02   1.678358e-02   1232916
  5.887780e+00   1.885539e+01   1.227538e-02   1.686889e-02   1253002
  5.930266e+00   1.899278e+01   1.224914e-02   1.686901e-02   1268576
  5.972763e+00   1.914339e+01   1.228621e-02   1.682966e-02   1290128
  6.015287e+00   1.934944e+01   1.227337e-02   1.692799e-02   1307402
  6.057820e+00   1.946446e+01   1.227649e-02   1.692239e-02   1327028
  6.100333e+00   1.967644e+01   1.225988e-02   1.697927e-02   1343648
  6.142842e+00   1.981654e+01   1.228087e-02   1.698543e-02   1364096
  6.185363e+00   1.996854e+01   1.227580e-02   1.698873e-02   1382730
  6.227896e+00   2.012654e+01   1.227503e-02   1.698819e-02   1402164
  6.270416e+00   2.022817e+01   1.227264e-02   1.698925e-02   1420464
  6.312883e+00   2.040363e+01   1.225519e-02   1.703682e-02   1437368
  6.355387e+00   2.055680e+01   1.228857e-02   1.698577e-02   1461530
  6.397919e+00   2.066843e+01   1.226028e-02   1.701846e-02   1478264
  6.440432e+00   2.088228e+01   1.227561e-02   1.705101e-02   1499356
  6.482926e+00   2.097848e+01   1.226095e-02   1.706574e-02   1517016
  6.525439e+00   2.111676e+01   1.228340e-02   1.700152e-02   1540090
  6.567953e+00   2.129007e+01   1.226146e-02   1.709408e-02   1557360
  6.610434e+00   2.139339e+01   1.226770e-02   1.701288e-02   1577780
  6.652969e+00   2.150607e+01   1.230043e-02   1.695829e-02   1602578
  6.695499e+00   2.170003e+01   1.225417e-02   1.703860e-02   1617672
  6.737992e+00   2.180315e+01   1.227613e-02   1.701992e-02   1641016
  6.780486e+00   2.194335e+01   1.226032e-02   1.702210e-02   1659416
  6.822983e+00   2.208476e+01   1.227372e-02   1.702306e-02   1682670
  6.865529e+00   2.219396e+01   1.228276e-02   1.701706e-02   1705256
  6.908096e+00   2.229059e+01   1.228756e-02   1.692916e-02   1726312
  6.950582e+00   2.244776e+01   1.225056e-02   1.701064e-02   1741880
  6.993044e+00   2.258791e+01   1.226862e-02   1.698007e-02   1766454
  7.035588e+00   2.266674e+01   1.229242e-02   1.693791e-02   1791784
  7.078111e+00   2.284434e+01   1.225558e-02   1.697242e-02   1807712
  7.120554e+00   2.297358e+01   1.225110e-02   1.696837e-02   1829002
  7.163037e+00   2.308392e+01   1.226905e-02   1.694150e-02   1854216
  7.205602e+00   2.321621e+01   1.229852e-02   1.693898e-02   1880156
  7.248150e+00   2.332153e+01   1.227340e-02   1.692591e-02   1897568
  7.290651e+00   2.343143e+01   1.227390e-02   1.691002e-02   1920458
  7.333153e+00   2.356851e+01   1.226399e-02   1.689361e-02   1942208
  7.375659e+00   2.364648e+01   1.227125e-02   1.688446e-02   1965612
  7.418175e+00   2.377231e+01   1.227855e-02   1.686042e-02   1989000
  7.460671e+00   2.391843e+01   1.225786e-02   1.686965e-02   2009114
  7.503166e+00   2.403195e+01   1.226960e-02   1.688920e-02   2034464
  7.545695e+00   2.413876e+01   1.228070e-02   1.687072e-02   2058476
  7.588207e+00   2.419067e+01   1.227216e-02   1.678569e-02   2079648
  7.630693e+00   2.429964e+01   1.226356e-02   1.676572e-02   2102578
  7.673222e+00   2.443229e+01   1.228297e-02   1.674427e-02   2129928
  7.715766e+00   2.454727e+01   1.227893e-02   1.673100e-02   2152096
  7.758252e+00   2.464672e+01   1.225143e-02   1.671851e-02   2171142
  7.800741e+00   2.473355e+01   1.227660e-02   1.667222e-02   2200248
  7.843296e+00   2.489616e+01   1.228407e-02   1.668768e-02   2225216
  7.885842e+00   2.496458e+01   1.228377e-02   1.662634e-02   2248448
  7.928336e+00   2.508810e+01   1.225709e-02   1.665657e-02   2267942
  7.970840e+00   2.516457e+01   1.228420e-02   1.663821e-02   2298072
  8.013348e+00   2.523700e+01   1.225627e-02   1.658029e-02   2317272
  8.055842e+00   2.537202e+01   1.227899e-02   1.658536e-02   2345808
  8.098322e+00   2.545835e+01   1.224988e-02   1.656696e-02   2365650
  8.140823e+00   2.556846e+01   1.227972e-02   1.651616e-02   2396940
  8.183368e+00   2.565380e+01   1.227975e-02   1.646778e-02   2421272
  8.225892e+00   2.573964e+01   1.227360e-02   1.648955e-02   2444576
  8.268407e+00   2.579764e+01   1.227899e-02   1.638920e-02   2471490
  8.310912e+00   2.588249e+01   1.225942e-02   1.639460e-02   2493180
  8.353397e+00   2.597900e+01   1.227208e-02   1.634593e-02   2520952
  8.395888e+00   2.607569e+01   1.226128e-02   1.635508e-02   2544946
  8.438392e+00   2.616769e+01   1.227324e-02   1.632010e-02   2573856
  8.480922e+00   2.620735e+01   1.227611e-02   1.625542e-02   2600016
  8.523447e+00   2.634298e+01   1.227641e-02   1.625815e-02   2625484
  8.565959e+00   2.638564e+01   1.227232e-02   1.622426e-02   2651122
  8.608519e+00   2.648110e+01   1.229739e-02   1.617765e-02   2683488
  8.651014e+00   2.655460e+01   1.223786e-02   1.618574e-02   2696352
  8.693483e+00   2.660249e+01   1.228468e-02   1.609873e-02   2733020
  8.736008e+00   2.671041e+01   1.227012e-02   1.609507e-02   2757378
  8.778525e+00   2.677827e+01   1.227177e-02   1.603577e-02   2784864
  8.821036e+00   2.687568e+01   1.227124e-02   1.600738e-02   2811168
  8.863496e+00   2.689517e+01   1.224424e-02   1.599161e-02   2832274
  8.906020e+00   2.695840e+01   1.230244e-02   1.586645e-02   2873636
  8.948567e+00   2.708254e+01   1.225951e-02   1.593936e-02   2890496
  8.991066e+00   2.712396e+01   1.227940e-02   1.585690e-02   2921800
  9.033598e+00   2.714516e+01   1.228441e-02   1.579699e-02   2951298
  9.076126e+00   2.726859e+01   1.226510e-02   1.580831e-02   2975476
  9.118654e+00   2.730231e+01   1.228550e-02   1.576011e-02   3007728
  9.161142e+00   2.735270e+01   1.224754e-02   1.572521e-02   3025776
  9.203640e+00   2.742710e+01   1.229182e-02   1.567452e-02   3065762
  9.246160e+00   2.751710e+01   1.225283e-02   1.568675e-02   3084856
  9.288649e+00   2.759046e+01   1.227594e-02   1.561005e-02   3118044
  9.331129e+00   2.762450e+01   1.225728e-02   1.558782e-02   3141352
  9.373640e+00   2.769033e+01   1.228814e-02   1.553061e-02   3179274
  9.416185e+00   2.773789e+01   1.227073e-02   1.552065e-02   3204120
  9.458671e+00   2.780892e+01   1.225444e-02   1.547661e-02   3227900
  9.501151e+00   2.785485e+01   1.227489e-02   1.540407e-02   3262394
  9.543701e+00   2.793405e+01   1.228726e-02   1.537074e-02   3295680
  9.586236e+00   2.799337e+01   1.226866e-02   1.537255e-02   3319560
  9.628737e+00   2.801013e+01   1.227228e-02   1.530135e-02   3348972
  9.671240e+00   2.806753e+01   1.227416e-02   1.527063e-02   3379722
  9.713763e+00   2.812865e+01   1.227339e-02   1.524033e-02   3410720
  9.756299e+00   2.814863e+01   1.227807e-02   1.517250e-02   3441504
  9.798787e+00   2.821192e+01   1.225320e-02   1.516981e-02   3463624
  9.841266e+00   2.824705e+01   1.227217e-02   1.508686e-02   3499790
  9.883803e+00   2.831102e+01   1.228281e-02   1.506495e-02   3533560
  9.926350e+00   2.833111e+01   1.227932e-02   1.500989e-02   3561920
  9.968836e+00   2.837429e+01   1.225683e-02   1.497412e-02   3585208
  1.001132e+01   2.841180e+01   1.227674e-02   1.493183e-02   3622518
  1.005387e+01   2.848155e+01   1.228938e-02   1.488509e-02   3657584
  1.009637e+01   2.854075e+01   1.225003e-02   1.490306e-02   3676440
  1.013883e+01   2.853880e+01   1.226093e-02   1.479528e-02   3711282
  1.018134e+01   2.859845e+01   1.227505e-02   1.475625e-02   3747696
  1.022386e+01   2.862764e+01   1.226890e-02   1.474186e-02   3776188
  1.026640e+01   2.865471e+01   1.229793e-02   1.465543e-02   3815304
  1.030893e+01   2.867143e+01   1.225864e-02   1.464224e-02   3835370
  1.035143e+01   2.873108e+01   1.227570e-02   1.460209e-02   3873424
  1.039395e+01   2.877168e+01   1.227191e-02   1.456569e-02   3903420
  1.043647e+01   2.876335e+01   1.228014e-02   1.447885e-02   3937624
  1.047898e+01   2.881016e+01   1.226404e-02   1.447244e-02   3965658
  1.052150e+01   2.885934e+01   1.227921e-02   1.442873e-02   4002984
  1.056400e+01   2.889332e+01   1.226054e-02   1.438091e-02   4027928
  1.060647e+01   2.886650e+01   1.225976e-02   1.431840e-02   4059844
  1.064896e+01   2.893120e+01   1.227978e-02   1.429693e-02   4100338
  1.069151e+01   2.894022e+01   1.227651e-02   1.423405e-02   4132264
  1.073403e+01   2.901701e+01   1.227390e-02   1.423324e-02   4163216
  1.077652e+01   2.900245e+01   1.226459e-02   1.414973e-02   4193350
  1.081904e+01   2.905449e+01   1.228427e-02   1.411668e-02   4234456
  1.086156e+01   2.905519e+01   1.225632e-02   1.409360e-02   4257264
  1.090405e+01   2.911646e+01   1.227910e-02   1.406053e-02   4297352
  1.094656e+01   2.910206e+01   1.226998e-02   1.397902e-02   4328642
  1.098909e+01   2.911310e+01   1.228265e-02   1.393778e-02   4367948
  1.103158e+01   2.915782e+01   1.224720e-02   1.393780e-02   4388384
  1.107408e+01   2.918834e+01   1.228899e-02   1.386354e-02   4436648
  1.111661e+01   2.915687e+01   1.227199e-02   1.380570e-02   4465658
  1.115915e+01   2.918774e+01   1.227871e-02   1.376443e-02   4502948
  1.120165e+01   2.924547e+01   1.225915e-02   1.372332e-02   4528880
  1.124413e+01   2.924470e+01   1.226872e-02   1.369557e-02   4566290
  1.128665e+01   2.924746e+01   1.228262e-02   1.362919e-02   4606856
  1.132917e+01   2.925468e+01   1.226621e-02   1.358351e-02   4635380
  1.137166e+01   2.931590e+01   1.226853e-02   1.356862e-02   4670384
  1.141417e+01   2.929610e+01   1.227665e-02   1.351338e-02   4709258
  1.145672e+01   2.931995e+01   1.228130e-02   1.346174e-02   4747352
  1.149922e+01   2.930061e+01   1.225462e-02   1.340905e-02   4771664
  1.154171e+01   2.935132e+01   1.227440e-02   1.337796e-02   4813532
  1.158423e+01   2.930797e+01   1.228175e-02   1.329779e-02   4852322
  1.162677e+01   2.933845e+01   1.227605e-02   1.326462e-02   4886480
  1.166928e+01   2.936129e+01   1.226516e-02   1.324640e-02   4917248
  1.171175e+01   2.932134e+01   1.226039e-02   1.318815e-02   4950828
  1.175428e+01   2.934486e+01   1.229115e-02   1.312954e-02   5000170
  1.179682e+01   2.934739e+01   1.226743e-02   1.308415e-02   5026952
  1.183930e+01   2.933895e+01   1.225870e-02   1.302560e-02   5058752
  1.188178e+01   2.934352e+01   1.227096e-02   1.297999e-02   5100722
  1.192431e+01   2.938876e+01   1.227592e-02   1.296192e-02   5140124
  1.196682e+01   2.932358e+01   1.227175e-02   1.290646e-02   5174072
  1.200934e+01   2.936171e+01   1.227571e-02   1.285710e-02   5211608
  1.205185e+01   2.933593e+01   1.227167e-02   1.280665e-02   5247794
  1.209436e+01   2.936612e+01   1.226763e-02   1.277904e-02   5284196
  1.213689e+01   2.933126e+01   1.228663e-02   1.271077e-02   5328800
