# power spectrum of delta_N
# redshift z=1.093858
# k              Pk             sigma(k)       sigma(Pk)      count
  3.132125e-02   4.626003e-03   4.792454e-03   8.621364e-04   18
  6.745391e-02   5.205416e-02   1.159167e-02   5.162596e-03   152
  1.090113e-01   1.215784e-01   1.224347e-02   5.680179e-03   416
  1.497134e-01   2.012441e-01   1.165022e-02   7.508316e-03   770
  1.923472e-01   2.893954e-01   1.247860e-02   8.080191e-03   1364
  2.350444e-01   3.851273e-01   1.221820e-02   8.558534e-03   1976
  2.775930e-01   4.879684e-01   1.245022e-02   9.454184e-03   2792
  3.193857e-01   6.111460e-01   1.188722e-02   1.010181e-02   3578
  3.615292e-01   7.113594e-01   1.219808e-02   1.041863e-02   4724
  4.045273e-01   8.402857e-01   1.253838e-02   1.079525e-02   6032
  4.469941e-01   9.463525e-01   1.206640e-02   1.148388e-02   7072
  4.890810e-01   1.118949e+00   1.222555e-02   1.226317e-02   8634
  5.318886e-01   1.308894e+00   1.238102e-02   1.289003e-02   10336
  5.746708e-01   1.453279e+00   1.232804e-02   1.332715e-02   11940
  6.167490e-01   1.625618e+00   1.208586e-02   1.396180e-02   13490
  6.588740e-01   1.845560e+00   1.221778e-02   1.495174e-02   15656
  7.016595e-01   2.068225e+00   1.241043e-02   1.531369e-02   18008
  7.443680e-01   2.289537e+00   1.227786e-02   1.632194e-02   19964
  7.867827e-01   2.470683e+00   1.226437e-02   1.650749e-02   22354
  8.291404e-01   2.738369e+00   1.212327e-02   1.743360e-02   24648
  8.716536e-01   2.987882e+00   1.233244e-02   1.803219e-02   27592
  9.142068e-01   3.264038e+00   1.230127e-02   1.863864e-02   30152
  9.566749e-01   3.518203e+00   1.227622e-02   1.935708e-02   33046
  9.991233e-01   3.773574e+00   1.221538e-02   1.991669e-02   35992
  1.041693e+00   4.190034e+00   1.229906e-02   2.123046e-02   39304
  1.084289e+00   4.412499e+00   1.232858e-02   2.133972e-02   42608
  1.126820e+00   4.819813e+00   1.223307e-02   2.254404e-02   45758
  1.169340e+00   5.131752e+00   1.228914e-02   2.314992e-02   49536
  1.211695e+00   5.509501e+00   1.215683e-02   2.406459e-02   52488
  1.254054e+00   5.883256e+00   1.233851e-02   2.470660e-02   57034
  1.296605e+00   6.195418e+00   1.224458e-02   2.527492e-02   60648
  1.339187e+00   6.623078e+00   1.230532e-02   2.587009e-02   65044
  1.381689e+00   6.934220e+00   1.223104e-02   2.649467e-02   68720
  1.424202e+00   7.333799e+00   1.231312e-02   2.719808e-02   73538
  1.466870e+00   7.877570e+00   1.230776e-02   2.823622e-02   78080
  1.509304e+00   8.196150e+00   1.215944e-02   2.864337e-02   81572
  1.551677e+00   8.682133e+00   1.232495e-02   2.950633e-02   87248
  1.594353e+00   9.124798e+00   1.233837e-02   2.977641e-02   92266
  1.636929e+00   9.559487e+00   1.225268e-02   3.074706e-02   96696
  1.679216e+00   1.007286e+01   1.215041e-02   3.190303e-02   100904
  1.721516e+00   1.055073e+01   1.226207e-02   3.234619e-02   107036
  1.764192e+00   1.101575e+01   1.235795e-02   3.282362e-02   113362
  1.806923e+00   1.152790e+01   1.228837e-02   3.363944e-02   118176
  1.849351e+00   1.200423e+01   1.221864e-02   3.434943e-02   122944
  1.891857e+00   1.246328e+01   1.233203e-02   3.438590e-02   129902
  1.934420e+00   1.305207e+01   1.224691e-02   3.574238e-02   134944
  1.976863e+00   1.344233e+01   1.225992e-02   3.579857e-02   140952
  2.019285e+00   1.405796e+01   1.225865e-02   3.663283e-02   147072
  2.061737e+00   1.444724e+01   1.224320e-02   3.690756e-02   153382
  2.104357e+00   1.510322e+01   1.233049e-02   3.759043e-02   160952
  2.147003e+00   1.550951e+01   1.228118e-02   3.791715e-02   166640
  2.189431e+00   1.612389e+01   1.222861e-02   3.902151e-02   172448
  2.231915e+00   1.663248e+01   1.231031e-02   3.921652e-02   180594
  2.274471e+00   1.728905e+01   1.224284e-02   4.017450e-02   186556
  2.316888e+00   1.776741e+01   1.225358e-02   4.039397e-02   193528
  2.359297e+00   1.842156e+01   1.224273e-02   4.110982e-02   200626
  2.401844e+00   1.886846e+01   1.230642e-02   4.131085e-02   209256
  2.444460e+00   1.940648e+01   1.227865e-02   4.190968e-02   216020
  2.487004e+00   1.997232e+01   1.230299e-02   4.246342e-02   223768
  2.529444e+00   2.054972e+01   1.222313e-02   4.267330e-02   230234
  2.571955e+00   2.105096e+01   1.229969e-02   4.292326e-02   239800
  2.614499e+00   2.168512e+01   1.225221e-02   4.368939e-02   246568
  2.656957e+00   2.218025e+01   1.227331e-02   4.398594e-02   254828
  2.699414e+00   2.277828e+01   1.225769e-02   4.458948e-02   263074
  2.741981e+00   2.340465e+01   1.228604e-02   4.493986e-02   272312
  2.784554e+00   2.393376e+01   1.228079e-02   4.526083e-02   280376
  2.827093e+00   2.449194e+01   1.228600e-02   4.554656e-02   288884
  2.869605e+00   2.502551e+01   1.227401e-02   4.609640e-02   297602
  2.912071e+00   2.541495e+01   1.223046e-02   4.604120e-02   305520
  2.954561e+00   2.629569e+01   1.230079e-02   4.680132e-02   315976
  2.996984e+00   2.687236e+01   1.221089e-02   4.716822e-02   322778
  3.039488e+00   2.731687e+01   1.232008e-02   4.703712e-02   335372
  3.082114e+00   2.786440e+01   1.227327e-02   4.747278e-02   343464
  3.124654e+00   2.854366e+01   1.228282e-02   4.807962e-02   352912
  3.167174e+00   2.888533e+01   1.228199e-02   4.792399e-02   362666
  3.209689e+00   2.957228e+01   1.225476e-02   4.828303e-02   371884
  3.252186e+00   3.014399e+01   1.227971e-02   4.871847e-02   382280
  3.294633e+00   3.064863e+01   1.224302e-02   4.902725e-02   390888
  3.337059e+00   3.118983e+01   1.226867e-02   4.910693e-02   402234
  3.379565e+00   3.167211e+01   1.225933e-02   4.951761e-02   412576
  3.422105e+00   3.206570e+01   1.228715e-02   4.923787e-02   423732
  3.464636e+00   3.273925e+01   1.227257e-02   4.972669e-02   433624
  3.507180e+00   3.318057e+01   1.228881e-02   4.980258e-02   445154
  3.549739e+00   3.383816e+01   1.227656e-02   5.015212e-02   455584
  3.592238e+00   3.427524e+01   1.225887e-02   5.035928e-02   465588
  3.634685e+00   3.480143e+01   1.226065e-02   5.054924e-02   476762
  3.677219e+00   3.532594e+01   1.229242e-02   5.028378e-02   489552
  3.719789e+00   3.577207e+01   1.227853e-02   5.056870e-02   500328
  3.762251e+00   3.622233e+01   1.223705e-02   5.066369e-02   509852
  3.804741e+00   3.692143e+01   1.229735e-02   5.075570e-02   524234
  3.847275e+00   3.736947e+01   1.224781e-02   5.132206e-02   534104
  3.889779e+00   3.776390e+01   1.228211e-02   5.122308e-02   547048
  3.932320e+00   3.820145e+01   1.229545e-02   5.105124e-02   559328
  3.974872e+00   3.876793e+01   1.228346e-02   5.112845e-02   571326
  4.017355e+00   3.931766e+01   1.224147e-02   5.140597e-02   581920
  4.059804e+00   3.981290e+01   1.225835e-02   5.168612e-02   594832
  4.102282e+00   4.023844e+01   1.227222e-02   5.142940e-02   608048
  4.144825e+00   4.076907e+01   1.228101e-02   5.172921e-02   621526
  4.187356e+00   4.112583e+01   1.226445e-02   5.189263e-02   633240
  4.229822e+00   4.156059e+01   1.225981e-02   5.170292e-02   645472
  4.272346e+00   4.207511e+01   1.230137e-02   5.194013e-02   660906
  4.314903e+00   4.258907e+01   1.227030e-02   5.190453e-02   672856
  4.357425e+00   4.305107e+01   1.226838e-02   5.195133e-02   685980
  4.399921e+00   4.344408e+01   1.227191e-02   5.203555e-02   699256
  4.442476e+00   4.386133e+01   1.229990e-02   5.182628e-02   714730
  4.484986e+00   4.418762e+01   1.223739e-02   5.185820e-02   725152
  4.527452e+00   4.472960e+01   1.227054e-02   5.191600e-02   740420
  4.569941e+00   4.533877e+01   1.227636e-02   5.225163e-02   754312
  4.612456e+00   4.562436e+01   1.227959e-02   5.193210e-02   769114
  4.654996e+00   4.611177e+01   1.227684e-02   5.228673e-02   783488
  4.697459e+00   4.658282e+01   1.223560e-02   5.220295e-02   794968
  4.739925e+00   4.690489e+01   1.228043e-02   5.202210e-02   812366
  4.782438e+00   4.745554e+01   1.226054e-02   5.222631e-02   825976
  4.825000e+00   4.775174e+01   1.230088e-02   5.204076e-02   843352
  4.867591e+00   4.809900e+01   1.229290e-02   5.187126e-02   857280
  4.910094e+00   4.848864e+01   1.225276e-02   5.206302e-02   869542
  4.952587e+00   4.898032e+01   1.228301e-02   5.195646e-02   887128
  4.995087e+00   4.906125e+01   1.225266e-02   5.173349e-02   900032
  5.037553e+00   4.977184e+01   1.226951e-02   5.197198e-02   916560
  5.080018e+00   5.001014e+01   1.224713e-02   5.176040e-02   930922
  5.122540e+00   5.032954e+01   1.228718e-02   5.161650e-02   949844
  5.165149e+00   5.081935e+01   1.230776e-02   5.175394e-02   966736
  5.207698e+00   5.123980e+01   1.226328e-02   5.185913e-02   978776
  5.250149e+00   5.173831e+01   1.225655e-02   5.170191e-02   994522
  5.292642e+00   5.183640e+01   1.227563e-02   5.163455e-02   1012420
  5.335176e+00   5.226928e+01   1.228639e-02   5.158445e-02   1029408
  5.377640e+00   5.260952e+01   1.223362e-02   5.139959e-02   1041658
  5.420127e+00   5.280126e+01   1.228953e-02   5.130627e-02   1063520
  5.462635e+00   5.328254e+01   1.224276e-02   5.137839e-02   1075808
  5.505175e+00   5.354966e+01   1.232008e-02   5.113984e-02   1098956
  5.547712e+00   5.390238e+01   1.224668e-02   5.119334e-02   1109810
  5.590179e+00   5.436692e+01   1.226115e-02   5.128890e-02   1128608
  5.632713e+00   5.462439e+01   1.229436e-02   5.093533e-02   1148264
  5.675250e+00   5.493697e+01   1.227167e-02   5.090743e-02   1163252
  5.717744e+00   5.533949e+01   1.226828e-02   5.090486e-02   1181042
  5.760239e+00   5.559182e+01   1.225730e-02   5.085737e-02   1197848
  5.802769e+00   5.570612e+01   1.229495e-02   5.060215e-02   1218848
  5.845291e+00   5.610220e+01   1.225944e-02   5.054079e-02   1232916
  5.887780e+00   5.648176e+01   1.227538e-02   5.056569e-02   1253002
  5.930266e+00   5.677881e+01   1.224914e-02   5.040808e-02   1268576
  5.972763e+00   5.698472e+01   1.228621e-02   5.020777e-02   1290128
  6.015287e+00   5.740177e+01   1.227337e-02   5.024784e-02   1307402
  6.057820e+00   5.759316e+01   1.227649e-02   4.994901e-02   1327028
  6.100333e+00   5.794078e+01   1.225988e-02   4.993822e-02   1343648
  6.142842e+00   5.826097e+01   1.228087e-02   4.984472e-02   1364096
  6.185363e+00   5.852971e+01   1.227580e-02   4.982615e-02   1382730
  6.227896e+00   5.880461e+01   1.227503e-02   4.958990e-02   1402164
  6.270416e+00   5.910646e+01   1.227264e-02   4.952723e-02   1420464
  6.312883e+00   5.929733e+01   1.225519e-02   4.943582e-02   1437368
  6.355387e+00   5.966670e+01   1.228857e-02   4.941085e-02   1461530
  6.397919e+00   5.996599e+01   1.226028e-02   4.945761e-02   1478264
  6.440432e+00   6.022581e+01   1.227561e-02   4.918501e-02   1499356
  6.482926e+00   6.050364e+01   1.226095e-02   4.905281e-02   1517016
  6.525439e+00   6.077840e+01   1.228340e-02   4.899292e-02   1540090
  6.567953e+00   6.091912e+01   1.226146e-02   4.876923e-02   1557360
  6.610434e+00   6.121112e+01   1.226770e-02   4.871023e-02   1577780
  6.652969e+00   6.135768e+01   1.230043e-02   4.847695e-02   1602578
  6.695499e+00   6.164157e+01   1.225417e-02   4.849048e-02   1617672
  6.737992e+00   6.193719e+01   1.227613e-02   4.828336e-02   1641016
  6.780486e+00   6.205406e+01   1.226032e-02   4.807258e-02   1659416
  6.822983e+00   6.244082e+01   1.227372e-02   4.815535e-02   1682670
  6.865529e+00   6.250238e+01   1.228276e-02   4.795262e-02   1705256
  6.908096e+00   6.272829e+01   1.228756e-02   4.778385e-02   1726312
  6.950582e+00   6.296001e+01   1.225056e-02   4.771139e-02   1741880
  6.993044e+00   6.320413e+01   1.226862e-02   4.748864e-02   1766454
  7.035588e+00   6.350246e+01   1.229242e-02   4.746872e-02   1791784
  7.078111e+00   6.367944e+01   1.225558e-02   4.736210e-02   1807712
  7.120554e+00   6.374466e+01   1.225110e-02   4.720243e-02   1829002
  7.163037e+00   6.400933e+01   1.226905e-02   4.705261e-02   1854216
  7.205602e+00   6.418716e+01   1.229852e-02   4.672819e-02   1880156
  7.248150e+00   6.430795e+01   1.227340e-02   4.664895e-02   1897568
  7.290651e+00   6.468489e+01   1.227390e-02   4.666744e-02   1920458
  7.333153e+00   6.473627e+01   1.226399e-02   4.641143e-02   1942208
  7.375659e+00   6.493638e+01   1.227125e-02   4.631523e-02   1965612
  7.418175e+00   6.500594e+01   1.227855e-02   4.607336e-02   1989000
  7.460671e+00   6.530393e+01   1.225786e-02   4.610545e-02   2009114
  7.503166e+00   6.541764e+01   1.226960e-02   4.583711e-02   2034464
  7.545695e+00   6.566285e+01   1.228070e-02   4.571270e-02   2058476
  7.588207e+00   6.591307e+01   1.227216e-02   4.562348e-02   2079648
  7.630693e+00   6.585754e+01   1.226356e-02   4.545926e-02   2102578
  7.673222e+00   6.601781e+01   1.228297e-02   4.521322e-02   2129928
  7.715766e+00   6.636921e+01   1.227893e-02   4.517586e-02   2152096
  7.758252e+00   6.639263e+01   1.225143e-02   4.511991e-02   2171142
  7.800741e+00   6.658546e+01   1.227660e-02   4.498999e-02   2200248
  7.843296e+00   6.667154e+01   1.228407e-02   4.472035e-02   2225216
  7.885842e+00   6.680074e+01   1.228377e-02   4.449515e-02   2248448
  7.928336e+00   6.689863e+01   1.225709e-02   4.444265e-02   2267942
  7.970840e+00   6.713332e+01   1.228420e-02   4.419882e-02   2298072
  8.013348e+00   6.728746e+01   1.225627e-02   4.418756e-02   2317272
  8.055842e+00   6.734922e+01   1.227899e-02   4.394706e-02   2345808
  8.098322e+00   6.756061e+01   1.224988e-02   4.389304e-02   2365650
  8.140823e+00   6.766304e+01   1.227972e-02   4.370533e-02   2396940
  8.183368e+00   6.784861e+01   1.227975e-02   4.356077e-02   2421272
  8.225892e+00   6.801469e+01   1.227360e-02   4.350541e-02   2444576
  8.268407e+00   6.804151e+01   1.227899e-02   4.328745e-02   2471490
  8.310912e+00   6.817865e+01   1.225942e-02   4.322424e-02   2493180
  8.353397e+00   6.833278e+01   1.227208e-02   4.305257e-02   2520952
  8.395888e+00   6.837769e+01   1.226128e-02   4.286202e-02   2544946
  8.438392e+00   6.857084e+01   1.227324e-02   4.277047e-02   2573856
  8.480922e+00   6.858152e+01   1.227611e-02   4.254684e-02   2600016
  8.523447e+00   6.883127e+01   1.227641e-02   4.250210e-02   2625484
  8.565959e+00   6.884495e+01   1.227232e-02   4.224168e-02   2651122
  8.608519e+00   6.904971e+01   1.229739e-02   4.215889e-02   2683488
  8.651014e+00   6.907318e+01   1.223786e-02   4.204937e-02   2696352
  8.693483e+00   6.917960e+01   1.228468e-02   4.191610e-02   2733020
  8.736008e+00   6.925349e+01   1.227012e-02   4.166409e-02   2757378
  8.778525e+00   6.923923e+01   1.227177e-02   4.151590e-02   2784864
  8.821036e+00   6.939786e+01   1.227124e-02   4.142274e-02   2811168
  8.863496e+00   6.949865e+01   1.224424e-02   4.126479e-02   2832274
  8.906020e+00   6.965753e+01   1.230244e-02   4.109900e-02   2873636
  8.948567e+00   6.954520e+01   1.225951e-02   4.085019e-02   2890496
  8.991066e+00   6.978915e+01   1.227940e-02   4.083298e-02   2921800
  9.033598e+00   6.986407e+01   1.228441e-02   4.067227e-02   2951298
  9.076126e+00   6.987772e+01   1.226510e-02   4.054351e-02   2975476
  9.118654e+00   6.999053e+01   1.228550e-02   4.038020e-02   3007728
  9.161142e+00   7.002889e+01   1.224754e-02   4.024902e-02   3025776
  9.203640e+00   7.006876e+01   1.229182e-02   4.001702e-02   3065762
  9.246160e+00   7.027830e+01   1.225283e-02   3.999455e-02   3084856
  9.288649e+00   7.026852e+01   1.227594e-02   3.980190e-02   3118044
  9.331129e+00   7.036464e+01   1.225728e-02   3.968762e-02   3141352
  9.373640e+00   7.037762e+01   1.228814e-02   3.945955e-02   3179274
  9.416185e+00   7.046348e+01   1.227073e-02   3.938833e-02   3204120
  9.458671e+00   7.043466e+01   1.225444e-02   3.917927e-02   3227900
  9.501151e+00   7.058221e+01   1.227489e-02   3.915371e-02   3262394
  9.543701e+00   7.061454e+01   1.228726e-02   3.892189e-02   3295680
  9.586236e+00   7.056766e+01   1.226866e-02   3.873127e-02   3319560
  9.628737e+00   7.079394e+01   1.227228e-02   3.870351e-02   3348972
  9.671240e+00   7.078145e+01   1.227416e-02   3.849584e-02   3379722
  9.713763e+00   7.066912e+01   1.227339e-02   3.827269e-02   3410720
  9.756299e+00   7.081927e+01   1.227807e-02   3.817973e-02   3441504
  9.798787e+00   7.083938e+01   1.225320e-02   3.809026e-02   3463624
  9.841266e+00   7.088677e+01   1.227217e-02   3.785641e-02   3499790
  9.883803e+00   7.088989e+01   1.228281e-02   3.768108e-02   3533560
  9.926350e+00   7.094500e+01   1.227932e-02   3.761215e-02   3561920
  9.968836e+00   7.090017e+01   1.225683e-02   3.744487e-02   3585208
  1.001132e+01   7.106426e+01   1.227674e-02   3.734793e-02   3622518
  1.005387e+01   7.100835e+01   1.228938e-02   3.710415e-02   3657584
  1.009637e+01   7.109292e+01   1.225003e-02   3.708751e-02   3676440
  1.013883e+01   7.106623e+01   1.226093e-02   3.685340e-02   3711282
  1.018134e+01   7.105899e+01   1.227505e-02   3.675523e-02   3747696
  1.022386e+01   7.109036e+01   1.226890e-02   3.655815e-02   3776188
  1.026640e+01   7.101018e+01   1.229793e-02   3.639195e-02   3815304
  1.030893e+01   7.101801e+01   1.225864e-02   3.625454e-02   3835370
  1.035143e+01   7.107329e+01   1.227570e-02   3.613329e-02   3873424
  1.039395e+01   7.101526e+01   1.227191e-02   3.596274e-02   3903420
  1.043647e+01   7.102302e+01   1.228014e-02   3.582724e-02   3937624
  1.047898e+01   7.099915e+01   1.226404e-02   3.563375e-02   3965658
  1.052150e+01   7.113955e+01   1.227921e-02   3.555043e-02   4002984
  1.056400e+01   7.102516e+01   1.226054e-02   3.538044e-02   4027928
  1.060647e+01   7.103398e+01   1.225976e-02   3.525923e-02   4059844
  1.064896e+01   7.106142e+01   1.227978e-02   3.512056e-02   4100338
  1.069151e+01   7.104799e+01   1.227651e-02   3.497646e-02   4132264
  1.073403e+01   7.106918e+01   1.227390e-02   3.481887e-02   4163216
  1.077652e+01   7.103662e+01   1.226459e-02   3.466103e-02   4193350
  1.081904e+01   7.100965e+01   1.228427e-02   3.446608e-02   4234456
  1.086156e+01   7.095247e+01   1.225632e-02   3.437059e-02   4257264
  1.090405e+01   7.090256e+01   1.227910e-02   3.419404e-02   4297352
  1.094656e+01   7.096341e+01   1.226998e-02   3.410030e-02   4328642
  1.098909e+01   7.092552e+01   1.228265e-02   3.394385e-02   4367948
  1.103158e+01   7.086959e+01   1.224720e-02   3.383209e-02   4388384
  1.107408e+01   7.085740e+01   1.228899e-02   3.366899e-02   4436648
  1.111661e+01   7.092690e+01   1.227199e-02   3.354300e-02   4465658
  1.115915e+01   7.080769e+01   1.227871e-02   3.335262e-02   4502948
  1.120165e+01   7.075809e+01   1.225915e-02   3.325817e-02   4528880
  1.124413e+01   7.066517e+01   1.226872e-02   3.306528e-02   4566290
  1.128665e+01   7.069931e+01   1.228262e-02   3.294944e-02   4606856
  1.132917e+01   7.064039e+01   1.226621e-02   3.276295e-02   4635380
  1.137166e+01   7.057308e+01   1.226853e-02   3.263501e-02   4670384
  1.141417e+01   7.060701e+01   1.227665e-02   3.255897e-02   4709258
  1.145672e+01   7.046339e+01   1.228130e-02   3.230019e-02   4747352
  1.149922e+01   7.048984e+01   1.225462e-02   3.228045e-02   4771664
  1.154171e+01   7.040991e+01   1.227440e-02   3.207447e-02   4813532
  1.158423e+01   7.045648e+01   1.228175e-02   3.198722e-02   4852322
  1.162677e+01   7.033985e+01   1.227605e-02   3.186112e-02   4886480
  1.166928e+01   7.036097e+01   1.226516e-02   3.172121e-02   4917248
  1.171175e+01   7.026230e+01   1.226039e-02   3.156464e-02   4950828
  1.175428e+01   7.019919e+01   1.229115e-02   3.143467e-02   5000170
  1.179682e+01   7.007805e+01   1.226743e-02   3.124215e-02   5026952
  1.183930e+01   7.010280e+01   1.225870e-02   3.115146e-02   5058752
  1.188178e+01   7.013751e+01   1.227096e-02   3.106421e-02   5100722
  1.192431e+01   6.997342e+01   1.227592e-02   3.087531e-02   5140124
  1.196682e+01   6.988803e+01   1.227175e-02   3.077131e-02   5174072
  1.200934e+01   6.985489e+01   1.227571e-02   3.059182e-02   5211608
  1.205185e+01   6.979809e+01   1.227167e-02   3.047779e-02   5247794
  1.209436e+01   6.970591e+01   1.226763e-02   3.031261e-02   5284196
  1.213689e+01   6.965038e+01   1.228663e-02   3.015719e-02   5328800
