# power spectrum of delta
# redshift z=9.982066
# k              Pk             sigma(k)       sigma(Pk)      count
  3.132125e-02   1.831701e-04   4.792454e-03   3.394089e-05   18
  6.745391e-02   2.092315e-03   1.159167e-02   2.118988e-04   152
  1.090113e-01   4.762283e-03   1.224347e-02   2.157694e-04   416
  1.497134e-01   7.800931e-03   1.165022e-02   2.926292e-04   770
  1.923472e-01   1.098445e-02   1.247860e-02   3.100135e-04   1364
  2.350444e-01   1.304900e-02   1.221820e-02   2.965754e-04   1976
  2.775930e-01   1.625362e-02   1.245022e-02   3.113473e-04   2792
  3.193857e-01   1.884000e-02   1.188722e-02   3.219247e-04   3578
  3.615292e-01   2.143168e-02   1.219808e-02   3.153637e-04   4724
  4.045273e-01   2.418955e-02   1.253838e-02   3.157831e-04   6032
  4.469941e-01   2.625769e-02   1.206640e-02   3.212754e-04   7072
  4.890810e-01   2.880695e-02   1.222555e-02   3.180136e-04   8634
  5.318886e-01   3.164092e-02   1.238102e-02   3.147775e-04   10336
  5.746708e-01   3.360902e-02   1.232804e-02   3.024790e-04   11940
  6.167490e-01   3.575355e-02   1.208586e-02   3.111702e-04   13490
  6.588740e-01   3.812945e-02   1.221778e-02   3.015256e-04   15656
  7.016595e-01   3.982248e-02   1.241043e-02   2.974310e-04   18008
  7.443680e-01   4.190933e-02   1.227786e-02   2.958938e-04   19964
  7.867827e-01   4.384932e-02   1.226437e-02   2.943676e-04   22354
  8.291404e-01   4.525631e-02   1.212327e-02   2.892654e-04   24648
  8.716536e-01   4.719143e-02   1.233244e-02   2.823419e-04   27592
  9.142068e-01   4.927034e-02   1.230127e-02   2.819032e-04   30152
  9.566749e-01   5.112137e-02   1.227622e-02   2.801255e-04   33046
  9.991233e-01   5.333600e-02   1.221538e-02   2.841883e-04   35992
  1.041693e+00   5.503094e-02   1.229906e-02   2.784966e-04   39304
  1.084289e+00   5.758085e-02   1.232858e-02   2.779592e-04   42608
  1.126820e+00   5.864312e-02   1.223307e-02   2.762924e-04   45758
  1.169340e+00   6.004765e-02   1.228914e-02   2.728232e-04   49536
  1.211695e+00   6.164830e-02   1.215683e-02   2.694058e-04   52488
  1.254054e+00   6.392204e-02   1.233851e-02   2.703922e-04   57034
  1.296605e+00   6.408118e-02   1.224458e-02   2.593359e-04   60648
  1.339187e+00   6.638807e-02   1.230532e-02   2.606361e-04   65044
  1.381689e+00   6.882303e-02   1.223104e-02   2.603968e-04   68720
  1.424202e+00   6.965965e-02   1.231312e-02   2.571994e-04   73538
  1.466870e+00   7.113360e-02   1.230776e-02   2.550085e-04   78080
  1.509304e+00   7.314228e-02   1.215944e-02   2.557124e-04   81572
  1.551677e+00   7.457729e-02   1.232495e-02   2.508718e-04   87248
  1.594353e+00   7.581539e-02   1.233837e-02   2.489926e-04   92266
  1.636929e+00   7.759903e-02   1.225268e-02   2.508918e-04   96696
  1.679216e+00   7.885751e-02   1.215041e-02   2.475588e-04   100904
  1.721516e+00   8.040366e-02   1.226207e-02   2.482807e-04   107036
  1.764192e+00   8.188023e-02   1.235795e-02   2.430457e-04   113362
  1.806923e+00   8.265752e-02   1.228837e-02   2.406702e-04   118176
  1.849351e+00   8.492286e-02   1.221864e-02   2.435157e-04   122944
  1.891857e+00   8.620640e-02   1.233203e-02   2.395004e-04   129902
  1.934420e+00   8.695131e-02   1.224691e-02   2.360005e-04   134944
  1.976863e+00   8.875701e-02   1.225992e-02   2.375517e-04   140952
  2.019285e+00   8.948665e-02   1.225865e-02   2.332311e-04   147072
  2.061737e+00   9.099898e-02   1.224320e-02   2.321640e-04   153382
  2.104357e+00   9.274224e-02   1.233049e-02   2.304934e-04   160952
  2.147003e+00   9.361058e-02   1.228118e-02   2.288283e-04   166640
  2.189431e+00   9.523771e-02   1.222861e-02   2.308791e-04   172448
  2.231915e+00   9.630132e-02   1.231031e-02   2.272490e-04   180594
  2.274471e+00   9.774994e-02   1.224284e-02   2.256148e-04   186556
  2.316888e+00   9.899579e-02   1.225358e-02   2.260439e-04   193528
  2.359297e+00   1.005543e-01   1.224273e-02   2.246235e-04   200626
  2.401844e+00   1.013523e-01   1.230642e-02   2.226972e-04   209256
  2.444460e+00   1.032356e-01   1.227865e-02   2.231261e-04   216020
  2.487004e+00   1.044109e-01   1.230299e-02   2.201185e-04   223768
  2.529444e+00   1.051638e-01   1.222313e-02   2.186898e-04   230234
  2.571955e+00   1.066842e-01   1.229969e-02   2.192427e-04   239800
  2.614499e+00   1.073367e-01   1.225221e-02   2.160225e-04   246568
  2.656957e+00   1.091227e-01   1.227331e-02   2.160543e-04   254828
  2.699414e+00   1.101434e-01   1.225769e-02   2.153736e-04   263074
  2.741981e+00   1.113441e-01   1.228604e-02   2.138923e-04   272312
  2.784554e+00   1.125822e-01   1.228079e-02   2.133502e-04   280376
  2.827093e+00   1.137853e-01   1.228600e-02   2.122522e-04   288884
  2.869605e+00   1.136600e-01   1.227401e-02   2.089462e-04   297602
  2.912071e+00   1.158921e-01   1.223046e-02   2.099971e-04   305520
  2.954561e+00   1.174378e-01   1.230079e-02   2.093514e-04   315976
  2.996984e+00   1.176463e-01   1.221089e-02   2.075305e-04   322778
  3.039488e+00   1.196455e-01   1.232008e-02   2.070895e-04   335372
  3.082114e+00   1.206307e-01   1.227327e-02   2.057763e-04   343464
  3.124654e+00   1.209794e-01   1.228282e-02   2.038346e-04   352912
  3.167174e+00   1.221208e-01   1.228199e-02   2.027369e-04   362666
  3.209689e+00   1.237693e-01   1.225476e-02   2.026756e-04   371884
  3.252186e+00   1.249436e-01   1.227971e-02   2.021008e-04   382280
  3.294633e+00   1.255749e-01   1.224302e-02   1.999116e-04   390888
  3.337059e+00   1.269755e-01   1.226867e-02   2.002824e-04   402234
  3.379565e+00   1.284000e-01   1.225933e-02   1.997313e-04   412576
  3.422105e+00   1.286227e-01   1.228715e-02   1.971172e-04   423732
  3.464636e+00   1.297884e-01   1.227257e-02   1.972488e-04   433624
  3.507180e+00   1.305707e-01   1.228881e-02   1.959097e-04   445154
  3.549739e+00   1.316601e-01   1.227656e-02   1.948010e-04   455584
  3.592238e+00   1.328022e-01   1.225887e-02   1.944831e-04   465588
  3.634685e+00   1.334154e-01   1.226065e-02   1.929214e-04   476762
  3.677219e+00   1.347436e-01   1.229242e-02   1.924244e-04   489552
  3.719789e+00   1.358187e-01   1.227853e-02   1.925859e-04   500328
  3.762251e+00   1.369057e-01   1.223705e-02   1.916037e-04   509852
  3.804741e+00   1.375194e-01   1.229735e-02   1.897373e-04   524234
  3.847275e+00   1.390833e-01   1.224781e-02   1.906762e-04   534104
  3.889779e+00   1.393285e-01   1.228211e-02   1.885542e-04   547048
  3.932320e+00   1.407621e-01   1.229545e-02   1.885864e-04   559328
  3.974872e+00   1.414837e-01   1.228346e-02   1.871494e-04   571326
  4.017355e+00   1.426925e-01   1.224147e-02   1.867094e-04   581920
  4.059804e+00   1.431460e-01   1.225835e-02   1.856872e-04   594832
  4.102282e+00   1.444237e-01   1.227222e-02   1.850903e-04   608048
  4.144825e+00   1.452975e-01   1.228101e-02   1.842294e-04   621526
  4.187356e+00   1.459159e-01   1.226445e-02   1.834821e-04   633240
  4.229822e+00   1.469833e-01   1.225981e-02   1.833105e-04   645472
  4.272346e+00   1.481353e-01   1.230137e-02   1.827015e-04   660906
  4.314903e+00   1.486714e-01   1.227030e-02   1.813403e-04   672856
  4.357425e+00   1.495450e-01   1.226838e-02   1.806034e-04   685980
  4.399921e+00   1.507551e-01   1.227191e-02   1.801392e-04   699256
  4.442476e+00   1.511042e-01   1.229990e-02   1.793750e-04   714730
  4.484986e+00   1.522662e-01   1.223739e-02   1.794427e-04   725152
  4.527452e+00   1.533131e-01   1.227054e-02   1.784652e-04   740420
  4.569941e+00   1.542052e-01   1.227636e-02   1.777320e-04   754312
  4.612456e+00   1.548917e-01   1.227959e-02   1.765405e-04   769114
  4.654996e+00   1.559939e-01   1.227684e-02   1.763618e-04   783488
  4.697459e+00   1.560848e-01   1.223560e-02   1.747259e-04   794968
  4.739925e+00   1.575449e-01   1.228043e-02   1.748891e-04   812366
  4.782438e+00   1.583774e-01   1.226054e-02   1.745808e-04   825976
  4.825000e+00   1.587925e-01   1.230088e-02   1.729059e-04   843352
  4.867591e+00   1.602207e-01   1.229290e-02   1.728713e-04   857280
  4.910094e+00   1.606179e-01   1.225276e-02   1.718161e-04   869542
  4.952587e+00   1.616661e-01   1.228301e-02   1.717269e-04   887128
  4.995087e+00   1.623453e-01   1.225266e-02   1.712309e-04   900032
  5.037553e+00   1.627368e-01   1.226951e-02   1.703100e-04   916560
  5.080018e+00   1.635878e-01   1.224713e-02   1.697667e-04   930922
  5.122540e+00   1.641604e-01   1.228718e-02   1.685403e-04   949844
  5.165149e+00   1.649361e-01   1.230776e-02   1.681015e-04   966736
  5.207698e+00   1.660158e-01   1.226328e-02   1.676120e-04   978776
  5.250149e+00   1.671173e-01   1.225655e-02   1.673630e-04   994522
  5.292642e+00   1.674962e-01   1.227563e-02   1.664306e-04   1012420
  5.335176e+00   1.678242e-01   1.228639e-02   1.656766e-04   1029408
  5.377640e+00   1.688664e-01   1.223362e-02   1.654102e-04   1041658
  5.420127e+00   1.697221e-01   1.228953e-02   1.646285e-04   1063520
  5.462635e+00   1.703368e-01   1.224276e-02   1.644314e-04   1075808
  5.505175e+00   1.713605e-01   1.232008e-02   1.638580e-04   1098956
  5.547712e+00   1.716828e-01   1.224668e-02   1.629426e-04   1109810
  5.590179e+00   1.724611e-01   1.226115e-02   1.622158e-04   1128608
  5.632713e+00   1.734119e-01   1.229436e-02   1.618642e-04   1148264
  5.675250e+00   1.743867e-01   1.227167e-02   1.617376e-04   1163252
  5.717744e+00   1.745595e-01   1.226828e-02   1.604794e-04   1181042
  5.760239e+00   1.753617e-01   1.225730e-02   1.603359e-04   1197848
  5.802769e+00   1.758591e-01   1.229495e-02   1.594840e-04   1218848
  5.845291e+00   1.767332e-01   1.225944e-02   1.594090e-04   1232916
  5.887780e+00   1.769821e-01   1.227538e-02   1.582061e-04   1253002
  5.930266e+00   1.779742e-01   1.224914e-02   1.579688e-04   1268576
  5.972763e+00   1.784349e-01   1.228621e-02   1.570203e-04   1290128
  6.015287e+00   1.790076e-01   1.227337e-02   1.566170e-04   1307402
  6.057820e+00   1.794842e-01   1.227649e-02   1.557766e-04   1327028
  6.100333e+00   1.806391e-01   1.225988e-02   1.558930e-04   1343648
  6.142842e+00   1.812958e-01   1.228087e-02   1.556781e-04   1364096
  6.185363e+00   1.815316e-01   1.227580e-02   1.543550e-04   1382730
  6.227896e+00   1.824267e-01   1.227503e-02   1.542676e-04   1402164
  6.270416e+00   1.828531e-01   1.227264e-02   1.535192e-04   1420464
  6.312883e+00   1.836629e-01   1.225519e-02   1.534020e-04   1437368
  6.355387e+00   1.841921e-01   1.228857e-02   1.522781e-04   1461530
  6.397919e+00   1.849320e-01   1.226028e-02   1.519400e-04   1478264
  6.440432e+00   1.854815e-01   1.227561e-02   1.518467e-04   1499356
  6.482926e+00   1.859088e-01   1.226095e-02   1.511280e-04   1517016
  6.525439e+00   1.865996e-01   1.228340e-02   1.504923e-04   1540090
  6.567953e+00   1.874466e-01   1.226146e-02   1.505427e-04   1557360
  6.610434e+00   1.876382e-01   1.226770e-02   1.495295e-04   1577780
  6.652969e+00   1.878191e-01   1.230043e-02   1.483164e-04   1602578
  6.695499e+00   1.887655e-01   1.225417e-02   1.485451e-04   1617672
  6.737992e+00   1.896402e-01   1.227613e-02   1.479086e-04   1641016
  6.780486e+00   1.898506e-01   1.226032e-02   1.474463e-04   1659416
  6.822983e+00   1.901900e-01   1.227372e-02   1.467422e-04   1682670
  6.865529e+00   1.909279e-01   1.228276e-02   1.458744e-04   1705256
  6.908096e+00   1.919357e-01   1.228756e-02   1.463346e-04   1726312
  6.950582e+00   1.920498e-01   1.225056e-02   1.454242e-04   1741880
  6.993044e+00   1.923443e-01   1.226862e-02   1.449934e-04   1766454
  7.035588e+00   1.930225e-01   1.229242e-02   1.444104e-04   1791784
  7.078111e+00   1.937228e-01   1.225558e-02   1.441071e-04   1807712
  7.120554e+00   1.939693e-01   1.225110e-02   1.436573e-04   1829002
  7.163037e+00   1.945327e-01   1.226905e-02   1.428933e-04   1854216
  7.205602e+00   1.951749e-01   1.229852e-02   1.425926e-04   1880156
  7.248150e+00   1.954941e-01   1.227340e-02   1.421648e-04   1897568
  7.290651e+00   1.961995e-01   1.227390e-02   1.416018e-04   1920458
  7.333153e+00   1.964879e-01   1.226399e-02   1.409659e-04   1942208
  7.375659e+00   1.970964e-01   1.227125e-02   1.407931e-04   1965612
  7.418175e+00   1.975430e-01   1.227855e-02   1.401502e-04   1989000
  7.460671e+00   1.977686e-01   1.225786e-02   1.396581e-04   2009114
  7.503166e+00   1.981298e-01   1.226960e-02   1.390403e-04   2034464
  7.545695e+00   1.982858e-01   1.228070e-02   1.384308e-04   2058476
  7.588207e+00   1.992782e-01   1.227216e-02   1.380159e-04   2079648
  7.630693e+00   1.997904e-01   1.226356e-02   1.378367e-04   2102578
  7.673222e+00   2.001734e-01   1.228297e-02   1.372164e-04   2129928
  7.715766e+00   2.002346e-01   1.227893e-02   1.366854e-04   2152096
  7.758252e+00   2.007761e-01   1.225143e-02   1.362381e-04   2171142
  7.800741e+00   2.011375e-01   1.227660e-02   1.355553e-04   2200248
  7.843296e+00   2.016597e-01   1.228407e-02   1.352662e-04   2225216
  7.885842e+00   2.021018e-01   1.228377e-02   1.349419e-04   2248448
  7.928336e+00   2.024700e-01   1.225709e-02   1.348637e-04   2267942
  7.970840e+00   2.026144e-01   1.228420e-02   1.338210e-04   2298072
  8.013348e+00   2.035514e-01   1.225627e-02   1.338550e-04   2317272
  8.055842e+00   2.036384e-01   1.227899e-02   1.332275e-04   2345808
  8.098322e+00   2.043018e-01   1.224988e-02   1.329964e-04   2365650
  8.140823e+00   2.042727e-01   1.227972e-02   1.321849e-04   2396940
  8.183368e+00   2.048393e-01   1.227975e-02   1.317694e-04   2421272
  8.225892e+00   2.050114e-01   1.227360e-02   1.313156e-04   2444576
  8.268407e+00   2.054287e-01   1.227899e-02   1.310473e-04   2471490
  8.310912e+00   2.055276e-01   1.225942e-02   1.304028e-04   2493180
  8.353397e+00   2.064170e-01   1.227208e-02   1.303486e-04   2520952
  8.395888e+00   2.064543e-01   1.226128e-02   1.294625e-04   2544946
  8.438392e+00   2.070926e-01   1.227324e-02   1.291407e-04   2573856
  8.480922e+00   2.072639e-01   1.227611e-02   1.288403e-04   2600016
  8.523447e+00   2.075226e-01   1.227641e-02   1.283201e-04   2625484
  8.565959e+00   2.082211e-01   1.227232e-02   1.280406e-04   2651122
  8.608519e+00   2.083442e-01   1.229739e-02   1.274327e-04   2683488
  8.651014e+00   2.087301e-01   1.223786e-02   1.274250e-04   2696352
  8.693483e+00   2.088447e-01   1.228468e-02   1.265625e-04   2733020
  8.736008e+00   2.092776e-01   1.227012e-02   1.262153e-04   2757378
  8.778525e+00   2.091922e-01   1.227177e-02   1.256700e-04   2784864
  8.821036e+00   2.097349e-01   1.227124e-02   1.252513e-04   2811168
  8.863496e+00   2.100588e-01   1.224424e-02   1.248854e-04   2832274
  8.906020e+00   2.101621e-01   1.230244e-02   1.241164e-04   2873636
  8.948567e+00   2.106928e-01   1.225951e-02   1.242389e-04   2890496
  8.991066e+00   2.107753e-01   1.227940e-02   1.234564e-04   2921800
  9.033598e+00   2.109395e-01   1.228441e-02   1.229543e-04   2951298
  9.076126e+00   2.109690e-01   1.226510e-02   1.223523e-04   2975476
  9.118654e+00   2.115321e-01   1.228550e-02   1.221031e-04   3007728
  9.161142e+00   2.118980e-01   1.224754e-02   1.219065e-04   3025776
  9.203640e+00   2.125196e-01   1.229182e-02   1.215654e-04   3065762
  9.246160e+00   2.122352e-01   1.225283e-02   1.209730e-04   3084856
  9.288649e+00   2.125889e-01   1.227594e-02   1.206471e-04   3118044
  9.331129e+00   2.128951e-01   1.225728e-02   1.202796e-04   3141352
  9.373640e+00   2.133485e-01   1.228814e-02   1.199316e-04   3179274
  9.416185e+00   2.133611e-01   1.227073e-02   1.194371e-04   3204120
  9.458671e+00   2.137236e-01   1.225444e-02   1.192423e-04   3227900
  9.501151e+00   2.138304e-01   1.227489e-02   1.187969e-04   3262394
  9.543701e+00   2.142372e-01   1.228726e-02   1.182543e-04   3295680
  9.586236e+00   2.144470e-01   1.226866e-02   1.179928e-04   3319560
  9.628737e+00   2.148733e-01   1.227228e-02   1.178138e-04   3348972
  9.671240e+00   2.146785e-01   1.227416e-02   1.171867e-04   3379722
  9.713763e+00   2.149407e-01   1.227339e-02   1.166203e-04   3410720
  9.756299e+00   2.149663e-01   1.227807e-02   1.160919e-04   3441504
  9.798787e+00   2.155333e-01   1.225320e-02   1.159221e-04   3463624
  9.841266e+00   2.158314e-01   1.227217e-02   1.156843e-04   3499790
  9.883803e+00   2.156968e-01   1.228281e-02   1.149467e-04   3533560
  9.926350e+00   2.157975e-01   1.227932e-02   1.146596e-04   3561920
  9.968836e+00   2.162842e-01   1.225683e-02   1.146854e-04   3585208
  1.001132e+01   2.165107e-01   1.227674e-02   1.140436e-04   3622518
  1.005387e+01   2.166138e-01   1.228938e-02   1.134604e-04   3657584
  1.009637e+01   2.168065e-01   1.225003e-02   1.132844e-04   3676440
  1.013883e+01   2.168694e-01   1.226093e-02   1.128909e-04   3711282
  1.018134e+01   2.171328e-01   1.227505e-02   1.123693e-04   3747696
  1.022386e+01   2.172070e-01   1.226890e-02   1.120820e-04   3776188
  1.026640e+01   2.175923e-01   1.229793e-02   1.117122e-04   3815304
  1.030893e+01   2.176470e-01   1.225864e-02   1.115253e-04   3835370
  1.035143e+01   2.177908e-01   1.227570e-02   1.110903e-04   3873424
  1.039395e+01   2.179367e-01   1.227191e-02   1.106933e-04   3903420
  1.043647e+01   2.181495e-01   1.228014e-02   1.102507e-04   3937624
  1.047898e+01   2.184088e-01   1.226404e-02   1.099517e-04   3965658
  1.052150e+01   2.187171e-01   1.227921e-02   1.096226e-04   4002984
  1.056400e+01   2.184587e-01   1.226054e-02   1.091976e-04   4027928
  1.060647e+01   2.186351e-01   1.225976e-02   1.088437e-04   4059844
  1.064896e+01   2.188005e-01   1.227978e-02   1.085304e-04   4100338
  1.069151e+01   2.190692e-01   1.227651e-02   1.082478e-04   4132264
  1.073403e+01   2.190770e-01   1.227390e-02   1.077631e-04   4163216
  1.077652e+01   2.190161e-01   1.226459e-02   1.072900e-04   4193350
  1.081904e+01   2.190810e-01   1.228427e-02   1.067676e-04   4234456
  1.086156e+01   2.193057e-01   1.225632e-02   1.066100e-04   4257264
  1.090405e+01   2.199323e-01   1.227910e-02   1.065169e-04   4297352
  1.094656e+01   2.195221e-01   1.226998e-02   1.058404e-04   4328642
  1.098909e+01   2.196014e-01   1.228265e-02   1.054803e-04   4367948
  1.103158e+01   2.198700e-01   1.224720e-02   1.053584e-04   4388384
  1.107408e+01   2.201536e-01   1.228899e-02   1.049197e-04   4436648
  1.111661e+01   2.203188e-01   1.227199e-02   1.046571e-04   4465658
  1.115915e+01   2.201772e-01   1.227871e-02   1.042070e-04   4502948
  1.120165e+01   2.202279e-01   1.225915e-02   1.039327e-04   4528880
  1.124413e+01   2.205273e-01   1.226872e-02   1.037707e-04   4566290
  1.128665e+01   2.204450e-01   1.228262e-02   1.033763e-04   4606856
  1.132917e+01   2.206617e-01   1.226621e-02   1.029224e-04   4635380
  1.137166e+01   2.206836e-01   1.226853e-02   1.025762e-04   4670384
  1.141417e+01   2.207008e-01   1.227665e-02   1.021491e-04   4709258
  1.145672e+01   2.210079e-01   1.228130e-02   1.019265e-04   4747352
  1.149922e+01   2.207515e-01   1.225462e-02   1.015368e-04   4771664
  1.154171e+01   2.210079e-01   1.227440e-02   1.013652e-04   4813532
  1.158423e+01   2.210459e-01   1.228175e-02   1.008109e-04   4852322
  1.162677e+01   2.211176e-01   1.227605e-02   1.004574e-04   4886480
  1.166928e+01   2.213912e-01   1.226516e-02   1.003147e-04   4917248
  1.171175e+01   2.210768e-01   1.226039e-02   9.993194e-05   4950828
  1.175428e+01   2.212096e-01   1.229115e-02   9.946435e-05   5000170
  1.179682e+01   2.212996e-01   1.226743e-02   9.927784e-05   5026952
  1.183930e+01   2.214032e-01   1.225870e-02   9.899454e-05   5058752
  1.188178e+01   2.214196e-01   1.227096e-02   9.859218e-05   5100722
  1.192431e+01   2.216493e-01   1.227592e-02   9.838359e-05   5140124
  1.196682e+01   2.213843e-01   1.227175e-02   9.792189e-05   5174072
  1.200934e+01   2.216088e-01   1.227571e-02   9.752689e-05   5211608
  1.205185e+01   2.216337e-01   1.227167e-02   9.736809e-05   5247794
  1.209436e+01   2.217483e-01   1.226763e-02   9.698277e-05   5284196
  1.213689e+01   2.219025e-01   1.228663e-02   9.670623e-05   5328800
