# power spectrum of delta_N
# redshift z=1.990984
# k              Pk             sigma(k)       sigma(Pk)      count
  3.132125e-02   2.391733e-03   4.792454e-03   4.448155e-04   18
  6.745391e-02   2.710670e-02   1.159167e-02   2.711461e-03   152
  1.090113e-01   6.280771e-02   1.224347e-02   2.897824e-03   416
  1.497134e-01   1.032847e-01   1.165022e-02   3.866277e-03   770
  1.923472e-01   1.466262e-01   1.247860e-02   4.141460e-03   1364
  2.350444e-01   1.867816e-01   1.221820e-02   4.185490e-03   1976
  2.775930e-01   2.341293e-01   1.245022e-02   4.539228e-03   2792
  3.193857e-01   2.847389e-01   1.188722e-02   4.713548e-03   3578
  3.615292e-01   3.245212e-01   1.219808e-02   4.734583e-03   4724
  4.045273e-01   3.795604e-01   1.253838e-02   4.850920e-03   6032
  4.469941e-01   4.163000e-01   1.206640e-02   5.154595e-03   7072
  4.890810e-01   4.830371e-01   1.222555e-02   5.321623e-03   8634
  5.318886e-01   5.500972e-01   1.238102e-02   5.500249e-03   10336
  5.746708e-01   6.082678e-01   1.232804e-02   5.457282e-03   11940
  6.167490e-01   6.644240e-01   1.208586e-02   5.732699e-03   13490
  6.588740e-01   7.485670e-01   1.221778e-02   5.975788e-03   15656
  7.016595e-01   8.100957e-01   1.241043e-02   5.847141e-03   18008
  7.443680e-01   8.702194e-01   1.227786e-02   6.284429e-03   19964
  7.867827e-01   9.504600e-01   1.226437e-02   6.457496e-03   22354
  8.291404e-01   1.014592e+00   1.212327e-02   6.474854e-03   24648
  8.716536e-01   1.094153e+00   1.233244e-02   6.470177e-03   27592
  9.142068e-01   1.189727e+00   1.230127e-02   6.772170e-03   30152
  9.566749e-01   1.263608e+00   1.227622e-02   6.997822e-03   33046
  9.991233e-01   1.359507e+00   1.221538e-02   7.153830e-03   35992
  1.041693e+00   1.463005e+00   1.229906e-02   7.304911e-03   39304
  1.084289e+00   1.544835e+00   1.232858e-02   7.521838e-03   42608
  1.126820e+00   1.640554e+00   1.223307e-02   7.708378e-03   45758
  1.169340e+00   1.715795e+00   1.228914e-02   7.740338e-03   49536
  1.211695e+00   1.844896e+00   1.215683e-02   8.093655e-03   52488
  1.254054e+00   1.938432e+00   1.233851e-02   8.102790e-03   57034
  1.296605e+00   2.048526e+00   1.224458e-02   8.286113e-03   60648
  1.339187e+00   2.145821e+00   1.230532e-02   8.338642e-03   65044
  1.381689e+00   2.267837e+00   1.223104e-02   8.602150e-03   68720
  1.424202e+00   2.401031e+00   1.231312e-02   8.862964e-03   73538
  1.466870e+00   2.525630e+00   1.230776e-02   9.045363e-03   78080
  1.509304e+00   2.630357e+00   1.215944e-02   9.197783e-03   81572
  1.551677e+00   2.771321e+00   1.232495e-02   9.442045e-03   87248
  1.594353e+00   2.912068e+00   1.233837e-02   9.594266e-03   92266
  1.636929e+00   3.001671e+00   1.225268e-02   9.622844e-03   96696
  1.679216e+00   3.159283e+00   1.215041e-02   9.887378e-03   100904
  1.721516e+00   3.305685e+00   1.226207e-02   1.020737e-02   107036
  1.764192e+00   3.444904e+00   1.235795e-02   1.019688e-02   113362
  1.806923e+00   3.599808e+00   1.228837e-02   1.043938e-02   118176
  1.849351e+00   3.752277e+00   1.221864e-02   1.063461e-02   122944
  1.891857e+00   3.902904e+00   1.233203e-02   1.085974e-02   129902
  1.934420e+00   4.067957e+00   1.224691e-02   1.107642e-02   134944
  1.976863e+00   4.193980e+00   1.225992e-02   1.121434e-02   140952
  2.019285e+00   4.369369e+00   1.225865e-02   1.138886e-02   147072
  2.061737e+00   4.554661e+00   1.224320e-02   1.162644e-02   153382
  2.104357e+00   4.720337e+00   1.233049e-02   1.171869e-02   160952
  2.147003e+00   4.868239e+00   1.228118e-02   1.185727e-02   166640
  2.189431e+00   5.004051e+00   1.222861e-02   1.207566e-02   172448
  2.231915e+00   5.205144e+00   1.231031e-02   1.221678e-02   180594
  2.274471e+00   5.354168e+00   1.224284e-02   1.244138e-02   186556
  2.316888e+00   5.553459e+00   1.225358e-02   1.268086e-02   193528
  2.359297e+00   5.719348e+00   1.224273e-02   1.291724e-02   200626
  2.401844e+00   5.945500e+00   1.230642e-02   1.306776e-02   209256
  2.444460e+00   6.122172e+00   1.227865e-02   1.319636e-02   216020
  2.487004e+00   6.301375e+00   1.230299e-02   1.338179e-02   223768
  2.529444e+00   6.521821e+00   1.222313e-02   1.358760e-02   230234
  2.571955e+00   6.674244e+00   1.229969e-02   1.359259e-02   239800
  2.614499e+00   6.880322e+00   1.225221e-02   1.381556e-02   246568
  2.656957e+00   7.140872e+00   1.227331e-02   1.409256e-02   254828
  2.699414e+00   7.268339e+00   1.225769e-02   1.417465e-02   263074
  2.741981e+00   7.438775e+00   1.228604e-02   1.428124e-02   272312
  2.784554e+00   7.697329e+00   1.228079e-02   1.454680e-02   280376
  2.827093e+00   7.891986e+00   1.228600e-02   1.468782e-02   288884
  2.869605e+00   8.057934e+00   1.227401e-02   1.471968e-02   297602
  2.912071e+00   8.304742e+00   1.223046e-02   1.497936e-02   305520
  2.954561e+00   8.476624e+00   1.230079e-02   1.503390e-02   315976
  2.996984e+00   8.668935e+00   1.221089e-02   1.521510e-02   322778
  3.039488e+00   8.919776e+00   1.232008e-02   1.538934e-02   335372
  3.082114e+00   9.137733e+00   1.227327e-02   1.564079e-02   343464
  3.124654e+00   9.324333e+00   1.228282e-02   1.571417e-02   352912
  3.167174e+00   9.561465e+00   1.228199e-02   1.588232e-02   362666
  3.209689e+00   9.743249e+00   1.225476e-02   1.601000e-02   371884
  3.252186e+00   9.994220e+00   1.227971e-02   1.611961e-02   382280
  3.294633e+00   1.016409e+01   1.224302e-02   1.626441e-02   390888
  3.337059e+00   1.035807e+01   1.226867e-02   1.629758e-02   402234
  3.379565e+00   1.062418e+01   1.225933e-02   1.655775e-02   412576
  3.422105e+00   1.081504e+01   1.228715e-02   1.658641e-02   423732
  3.464636e+00   1.107240e+01   1.227257e-02   1.682027e-02   433624
  3.507180e+00   1.126933e+01   1.228881e-02   1.690695e-02   445154
  3.549739e+00   1.150589e+01   1.227656e-02   1.707314e-02   455584
  3.592238e+00   1.169799e+01   1.225887e-02   1.720074e-02   465588
  3.634685e+00   1.189277e+01   1.226065e-02   1.721638e-02   476762
  3.677219e+00   1.214521e+01   1.229242e-02   1.730063e-02   489552
  3.719789e+00   1.232455e+01   1.227853e-02   1.743245e-02   500328
  3.762251e+00   1.254417e+01   1.223705e-02   1.757666e-02   509852
  3.804741e+00   1.279194e+01   1.229735e-02   1.761776e-02   524234
  3.847275e+00   1.307818e+01   1.224781e-02   1.792053e-02   534104
  3.889779e+00   1.323042e+01   1.228211e-02   1.789983e-02   547048
  3.932320e+00   1.352277e+01   1.229545e-02   1.807637e-02   559328
  3.974872e+00   1.370013e+01   1.228346e-02   1.812611e-02   571326
  4.017355e+00   1.396136e+01   1.224147e-02   1.831465e-02   581920
  4.059804e+00   1.416409e+01   1.225835e-02   1.836142e-02   594832
  4.102282e+00   1.435206e+01   1.227222e-02   1.835230e-02   608048
  4.144825e+00   1.455000e+01   1.228101e-02   1.844724e-02   621526
  4.187356e+00   1.476406e+01   1.226445e-02   1.854813e-02   633240
  4.229822e+00   1.499549e+01   1.225981e-02   1.866020e-02   645472
  4.272346e+00   1.523479e+01   1.230137e-02   1.872036e-02   660906
  4.314903e+00   1.547750e+01   1.227030e-02   1.889550e-02   672856
  4.357425e+00   1.572089e+01   1.226838e-02   1.905550e-02   685980
  4.399921e+00   1.593763e+01   1.227191e-02   1.908835e-02   699256
  4.442476e+00   1.609231e+01   1.229990e-02   1.901651e-02   714730
  4.484986e+00   1.627885e+01   1.223739e-02   1.912433e-02   725152
  4.527452e+00   1.654301e+01   1.227054e-02   1.922723e-02   740420
  4.569941e+00   1.680363e+01   1.227636e-02   1.928348e-02   754312
  4.612456e+00   1.694938e+01   1.227959e-02   1.930568e-02   769114
  4.654996e+00   1.721820e+01   1.227684e-02   1.947779e-02   783488
  4.697459e+00   1.738133e+01   1.223560e-02   1.954796e-02   794968
  4.739925e+00   1.764928e+01   1.228043e-02   1.957425e-02   812366
  4.782438e+00   1.785059e+01   1.226054e-02   1.964834e-02   825976
  4.825000e+00   1.805516e+01   1.230088e-02   1.961760e-02   843352
  4.867591e+00   1.825320e+01   1.229290e-02   1.972941e-02   857280
  4.910094e+00   1.844625e+01   1.225276e-02   1.975322e-02   869542
  4.952587e+00   1.863536e+01   1.228301e-02   1.977969e-02   887128
  4.995087e+00   1.885072e+01   1.225266e-02   1.980867e-02   900032
  5.037553e+00   1.911303e+01   1.226951e-02   2.000335e-02   916560
  5.080018e+00   1.930538e+01   1.224713e-02   1.998146e-02   930922
  5.122540e+00   1.948313e+01   1.228718e-02   2.001371e-02   949844
  5.165149e+00   1.967050e+01   1.230776e-02   2.006810e-02   966736
  5.207698e+00   1.988498e+01   1.226328e-02   2.014525e-02   978776
  5.250149e+00   2.004867e+01   1.225655e-02   2.010233e-02   994522
  5.292642e+00   2.024003e+01   1.227563e-02   2.017251e-02   1012420
  5.335176e+00   2.050059e+01   1.228639e-02   2.020273e-02   1029408
  5.377640e+00   2.068495e+01   1.223362e-02   2.025901e-02   1041658
  5.420127e+00   2.090124e+01   1.228953e-02   2.025811e-02   1063520
  5.462635e+00   2.111453e+01   1.224276e-02   2.036084e-02   1075808
  5.505175e+00   2.121430e+01   1.232008e-02   2.025365e-02   1098956
  5.547712e+00   2.143982e+01   1.224668e-02   2.034900e-02   1109810
  5.590179e+00   2.162942e+01   1.226115e-02   2.038757e-02   1128608
  5.632713e+00   2.183705e+01   1.229436e-02   2.036358e-02   1148264
  5.675250e+00   2.196716e+01   1.227167e-02   2.029943e-02   1163252
  5.717744e+00   2.216653e+01   1.226828e-02   2.042685e-02   1181042
  5.760239e+00   2.241446e+01   1.225730e-02   2.051669e-02   1197848
  5.802769e+00   2.255630e+01   1.229495e-02   2.044814e-02   1218848
  5.845291e+00   2.273076e+01   1.225944e-02   2.044413e-02   1232916
  5.887780e+00   2.288072e+01   1.227538e-02   2.044684e-02   1253002
  5.930266e+00   2.308065e+01   1.224914e-02   2.048014e-02   1268576
  5.972763e+00   2.321080e+01   1.228621e-02   2.037162e-02   1290128
  6.015287e+00   2.342385e+01   1.227337e-02   2.051923e-02   1307402
  6.057820e+00   2.352966e+01   1.227649e-02   2.047109e-02   1327028
  6.100333e+00   2.378974e+01   1.225988e-02   2.052216e-02   1343648
  6.142842e+00   2.392078e+01   1.228087e-02   2.047346e-02   1364096
  6.185363e+00   2.412677e+01   1.227580e-02   2.054187e-02   1382730
  6.227896e+00   2.433170e+01   1.227503e-02   2.054847e-02   1402164
  6.270416e+00   2.442404e+01   1.227264e-02   2.047516e-02   1420464
  6.312883e+00   2.456717e+01   1.225519e-02   2.052019e-02   1437368
  6.355387e+00   2.474392e+01   1.228857e-02   2.046405e-02   1461530
  6.397919e+00   2.492529e+01   1.226028e-02   2.052435e-02   1478264
  6.440432e+00   2.509349e+01   1.227561e-02   2.045739e-02   1499356
  6.482926e+00   2.524407e+01   1.226095e-02   2.052065e-02   1517016
  6.525439e+00   2.541075e+01   1.228340e-02   2.048633e-02   1540090
  6.567953e+00   2.557664e+01   1.226146e-02   2.049599e-02   1557360
  6.610434e+00   2.576750e+01   1.226770e-02   2.049742e-02   1577780
  6.652969e+00   2.584822e+01   1.230043e-02   2.044665e-02   1602578
  6.695499e+00   2.605141e+01   1.225417e-02   2.050183e-02   1617672
  6.737992e+00   2.617483e+01   1.227613e-02   2.041822e-02   1641016
  6.780486e+00   2.632242e+01   1.226032e-02   2.044824e-02   1659416
  6.822983e+00   2.645816e+01   1.227372e-02   2.040743e-02   1682670
  6.865529e+00   2.661183e+01   1.228276e-02   2.042043e-02   1705256
  6.908096e+00   2.673080e+01   1.228756e-02   2.033475e-02   1726312
  6.950582e+00   2.685590e+01   1.225056e-02   2.035881e-02   1741880
  6.993044e+00   2.701510e+01   1.226862e-02   2.031496e-02   1766454
  7.035588e+00   2.710257e+01   1.229242e-02   2.021646e-02   1791784
  7.078111e+00   2.729924e+01   1.225558e-02   2.026628e-02   1807712
  7.120554e+00   2.745184e+01   1.225110e-02   2.030075e-02   1829002
  7.163037e+00   2.757976e+01   1.226905e-02   2.028251e-02   1854216
  7.205602e+00   2.776297e+01   1.229852e-02   2.022294e-02   1880156
  7.248150e+00   2.781793e+01   1.227340e-02   2.020910e-02   1897568
  7.290651e+00   2.798797e+01   1.227390e-02   2.019841e-02   1920458
  7.333153e+00   2.809638e+01   1.226399e-02   2.014060e-02   1942208
  7.375659e+00   2.818831e+01   1.227125e-02   2.008045e-02   1965612
  7.418175e+00   2.836268e+01   1.227855e-02   2.016945e-02   1989000
  7.460671e+00   2.845555e+01   1.225786e-02   2.006638e-02   2009114
  7.503166e+00   2.852723e+01   1.226960e-02   2.000273e-02   2034464
  7.545695e+00   2.871879e+01   1.228070e-02   2.001770e-02   2058476
  7.588207e+00   2.883123e+01   1.227216e-02   1.999278e-02   2079648
  7.630693e+00   2.888898e+01   1.226356e-02   1.992424e-02   2102578
  7.673222e+00   2.902371e+01   1.228297e-02   1.986031e-02   2129928
  7.715766e+00   2.915175e+01   1.227893e-02   1.985308e-02   2152096
  7.758252e+00   2.930003e+01   1.225143e-02   1.987287e-02   2171142
  7.800741e+00   2.934363e+01   1.227660e-02   1.976179e-02   2200248
  7.843296e+00   2.947707e+01   1.228407e-02   1.976395e-02   2225216
  7.885842e+00   2.958148e+01   1.228377e-02   1.973425e-02   2248448
  7.928336e+00   2.966196e+01   1.225709e-02   1.971291e-02   2267942
  7.970840e+00   2.978467e+01   1.228420e-02   1.966646e-02   2298072
  8.013348e+00   2.988922e+01   1.225627e-02   1.963639e-02   2317272
  8.055842e+00   2.995690e+01   1.227899e-02   1.955247e-02   2345808
  8.098322e+00   3.010981e+01   1.224988e-02   1.958150e-02   2365650
  8.140823e+00   3.020501e+01   1.227972e-02   1.947073e-02   2396940
  8.183368e+00   3.031715e+01   1.227975e-02   1.948884e-02   2421272
  8.225892e+00   3.042145e+01   1.227360e-02   1.946797e-02   2444576
  8.268407e+00   3.051742e+01   1.227899e-02   1.941669e-02   2471490
  8.310912e+00   3.050450e+01   1.225942e-02   1.929704e-02   2493180
  8.353397e+00   3.063206e+01   1.227208e-02   1.931406e-02   2520952
  8.395888e+00   3.079576e+01   1.226128e-02   1.927884e-02   2544946
  8.438392e+00   3.084177e+01   1.227324e-02   1.922390e-02   2573856
  8.480922e+00   3.096037e+01   1.227611e-02   1.916534e-02   2600016
  8.523447e+00   3.098956e+01   1.227641e-02   1.911731e-02   2625484
  8.565959e+00   3.110445e+01   1.227232e-02   1.910165e-02   2651122
  8.608519e+00   3.116119e+01   1.229739e-02   1.900860e-02   2683488
  8.651014e+00   3.122213e+01   1.223786e-02   1.903685e-02   2696352
  8.693483e+00   3.134178e+01   1.228468e-02   1.896573e-02   2733020
  8.736008e+00   3.140333e+01   1.227012e-02   1.888329e-02   2757378
  8.778525e+00   3.147985e+01   1.227177e-02   1.888719e-02   2784864
  8.821036e+00   3.156607e+01   1.227124e-02   1.883879e-02   2811168
  8.863496e+00   3.163566e+01   1.224424e-02   1.880757e-02   2832274
  8.906020e+00   3.172588e+01   1.230244e-02   1.872518e-02   2873636
  8.948567e+00   3.180337e+01   1.225951e-02   1.871987e-02   2890496
  8.991066e+00   3.186936e+01   1.227940e-02   1.863869e-02   2921800
  9.033598e+00   3.189822e+01   1.228441e-02   1.855641e-02   2951298
  9.076126e+00   3.201110e+01   1.226510e-02   1.855422e-02   2975476
  9.118654e+00   3.200933e+01   1.228550e-02   1.845843e-02   3007728
  9.161142e+00   3.207884e+01   1.224754e-02   1.845282e-02   3025776
  9.203640e+00   3.215928e+01   1.229182e-02   1.835035e-02   3065762
  9.246160e+00   3.219317e+01   1.225283e-02   1.832992e-02   3084856
  9.288649e+00   3.229474e+01   1.227594e-02   1.828049e-02   3118044
  9.331129e+00   3.232537e+01   1.225728e-02   1.824755e-02   3141352
  9.373640e+00   3.243320e+01   1.228814e-02   1.819445e-02   3179274
  9.416185e+00   3.247782e+01   1.227073e-02   1.812921e-02   3204120
  9.458671e+00   3.253478e+01   1.225444e-02   1.810149e-02   3227900
  9.501151e+00   3.257887e+01   1.227489e-02   1.807214e-02   3262394
  9.543701e+00   3.264460e+01   1.228726e-02   1.798409e-02   3295680
  9.586236e+00   3.266300e+01   1.226866e-02   1.790698e-02   3319560
  9.628737e+00   3.272616e+01   1.227228e-02   1.788015e-02   3348972
  9.671240e+00   3.279560e+01   1.227416e-02   1.782768e-02   3379722
  9.713763e+00   3.286419e+01   1.227339e-02   1.779160e-02   3410720
  9.756299e+00   3.286510e+01   1.227807e-02   1.772048e-02   3441504
  9.798787e+00   3.295468e+01   1.225320e-02   1.773508e-02   3463624
  9.841266e+00   3.293182e+01   1.227217e-02   1.760878e-02   3499790
  9.883803e+00   3.300121e+01   1.228281e-02   1.757358e-02   3533560
  9.926350e+00   3.308562e+01   1.227932e-02   1.754406e-02   3561920
  9.968836e+00   3.308084e+01   1.225683e-02   1.748326e-02   3585208
  1.001132e+01   3.317532e+01   1.227674e-02   1.741766e-02   3622518
  1.005387e+01   3.319926e+01   1.228938e-02   1.735392e-02   3657584
  1.009637e+01   3.319296e+01   1.225003e-02   1.730721e-02   3676440
  1.013883e+01   3.322977e+01   1.226093e-02   1.723661e-02   3711282
  1.018134e+01   3.328698e+01   1.227505e-02   1.717829e-02   3747696
  1.022386e+01   3.324679e+01   1.226890e-02   1.710534e-02   3776188
  1.026640e+01   3.336667e+01   1.229793e-02   1.707692e-02   3815304
  1.030893e+01   3.335293e+01   1.225864e-02   1.702562e-02   3835370
  1.035143e+01   3.340509e+01   1.227570e-02   1.696741e-02   3873424
  1.039395e+01   3.342756e+01   1.227191e-02   1.692518e-02   3903420
  1.043647e+01   3.344634e+01   1.228014e-02   1.684005e-02   3937624
  1.047898e+01   3.346291e+01   1.226404e-02   1.678592e-02   3965658
  1.052150e+01   3.345853e+01   1.227921e-02   1.674937e-02   4002984
  1.056400e+01   3.352733e+01   1.226054e-02   1.671591e-02   4027928
  1.060647e+01   3.354183e+01   1.225976e-02   1.665870e-02   4059844
  1.064896e+01   3.357049e+01   1.227978e-02   1.659968e-02   4100338
  1.069151e+01   3.357060e+01   1.227651e-02   1.653947e-02   4132264
  1.073403e+01   3.358925e+01   1.227390e-02   1.644865e-02   4163216
  1.077652e+01   3.363346e+01   1.226459e-02   1.640587e-02   4193350
  1.081904e+01   3.364858e+01   1.228427e-02   1.636373e-02   4234456
  1.086156e+01   3.367285e+01   1.225632e-02   1.632166e-02   4257264
  1.090405e+01   3.369363e+01   1.227910e-02   1.624345e-02   4297352
  1.094656e+01   3.366061e+01   1.226998e-02   1.616364e-02   4328642
  1.098909e+01   3.368178e+01   1.228265e-02   1.613563e-02   4367948
  1.103158e+01   3.369922e+01   1.224720e-02   1.608863e-02   4388384
  1.107408e+01   3.373213e+01   1.228899e-02   1.600523e-02   4436648
  1.111661e+01   3.375320e+01   1.227199e-02   1.597014e-02   4465658
  1.115915e+01   3.379452e+01   1.227871e-02   1.591233e-02   4502948
  1.120165e+01   3.376134e+01   1.225915e-02   1.585626e-02   4528880
  1.124413e+01   3.379110e+01   1.226872e-02   1.580763e-02   4566290
  1.128665e+01   3.379657e+01   1.228262e-02   1.572923e-02   4606856
  1.132917e+01   3.379805e+01   1.226621e-02   1.568775e-02   4635380
  1.137166e+01   3.381323e+01   1.226853e-02   1.565619e-02   4670384
  1.141417e+01   3.381909e+01   1.227665e-02   1.558241e-02   4709258
  1.145672e+01   3.389415e+01   1.228130e-02   1.554877e-02   4747352
  1.149922e+01   3.387580e+01   1.225462e-02   1.550031e-02   4771664
  1.154171e+01   3.384962e+01   1.227440e-02   1.543704e-02   4813532
  1.158423e+01   3.386468e+01   1.228175e-02   1.537343e-02   4852322
  1.162677e+01   3.387162e+01   1.227605e-02   1.530863e-02   4886480
  1.166928e+01   3.388229e+01   1.226516e-02   1.527868e-02   4917248
  1.171175e+01   3.385541e+01   1.226039e-02   1.521794e-02   4950828
  1.175428e+01   3.388455e+01   1.229115e-02   1.515622e-02   5000170
  1.179682e+01   3.383781e+01   1.226743e-02   1.511007e-02   5026952
  1.183930e+01   3.387278e+01   1.225870e-02   1.505927e-02   5058752
  1.188178e+01   3.383359e+01   1.227096e-02   1.499042e-02   5100722
  1.192431e+01   3.382312e+01   1.227592e-02   1.489808e-02   5140124
  1.196682e+01   3.383403e+01   1.227175e-02   1.487755e-02   5174072
  1.200934e+01   3.382662e+01   1.227571e-02   1.481842e-02   5211608
  1.205185e+01   3.381019e+01   1.227167e-02   1.475609e-02   5247794
  1.209436e+01   3.380284e+01   1.226763e-02   1.470054e-02   5284196
  1.213689e+01   3.378273e+01   1.228663e-02   1.463015e-02   5328800
