# power spectrum of delta_N
# redshift z=0.996075
# k              Pk             sigma(k)       sigma(Pk)      count
  3.132125e-02   5.031194e-03   4.792454e-03   9.379497e-04   18
  6.745391e-02   5.654161e-02   1.159167e-02   5.599705e-03   152
  1.090113e-01   1.321953e-01   1.224347e-02   6.188462e-03   416
  1.497134e-01   2.190963e-01   1.165022e-02   8.169441e-03   770
  1.923472e-01   3.157685e-01   1.247860e-02   8.798018e-03   1364
  2.350444e-01   4.229363e-01   1.221820e-02   9.389038e-03   1976
  2.775930e-01   5.368756e-01   1.245022e-02   1.040128e-02   2792
  3.193857e-01   6.752621e-01   1.188722e-02   1.116542e-02   3578
  3.615292e-01   7.895721e-01   1.219808e-02   1.158223e-02   4724
  4.045273e-01   9.338486e-01   1.253838e-02   1.200309e-02   6032
  4.469941e-01   1.056225e+00   1.206640e-02   1.278366e-02   7072
  4.890810e-01   1.252535e+00   1.222555e-02   1.371922e-02   8634
  5.318886e-01   1.468294e+00   1.238102e-02   1.443572e-02   10336
  5.746708e-01   1.632052e+00   1.232804e-02   1.499635e-02   11940
  6.167490e-01   1.833151e+00   1.208586e-02   1.569526e-02   13490
  6.588740e-01   2.078252e+00   1.221778e-02   1.688201e-02   15656
  7.016595e-01   2.337249e+00   1.241043e-02   1.736446e-02   18008
  7.443680e-01   2.599300e+00   1.227786e-02   1.851587e-02   19964
  7.867827e-01   2.810095e+00   1.226437e-02   1.877580e-02   22354
  8.291404e-01   3.125064e+00   1.212327e-02   1.985110e-02   24648
  8.716536e-01   3.407144e+00   1.233244e-02   2.059536e-02   27592
  9.142068e-01   3.725125e+00   1.230127e-02   2.132579e-02   30152
  9.566749e-01   4.022348e+00   1.227622e-02   2.209252e-02   33046
  9.991233e-01   4.311969e+00   1.221538e-02   2.273309e-02   35992
  1.041693e+00   4.795711e+00   1.229906e-02   2.428974e-02   39304
  1.084289e+00   5.038796e+00   1.232858e-02   2.436129e-02   42608
  1.126820e+00   5.516379e+00   1.223307e-02   2.584007e-02   45758
  1.169340e+00   5.898863e+00   1.228914e-02   2.649832e-02   49536
  1.211695e+00   6.313665e+00   1.215683e-02   2.756503e-02   52488
  1.254054e+00   6.759964e+00   1.233851e-02   2.835169e-02   57034
  1.296605e+00   7.124683e+00   1.224458e-02   2.905241e-02   60648
  1.339187e+00   7.621461e+00   1.230532e-02   2.984590e-02   65044
  1.381689e+00   7.978580e+00   1.223104e-02   3.043804e-02   68720
  1.424202e+00   8.431093e+00   1.231312e-02   3.120303e-02   73538
  1.466870e+00   9.050065e+00   1.230776e-02   3.242517e-02   78080
  1.509304e+00   9.435450e+00   1.215944e-02   3.303770e-02   81572
  1.551677e+00   9.978135e+00   1.232495e-02   3.396443e-02   87248
  1.594353e+00   1.048215e+01   1.233837e-02   3.422241e-02   92266
  1.636929e+00   1.097635e+01   1.225268e-02   3.523204e-02   96696
  1.679216e+00   1.158199e+01   1.215041e-02   3.659973e-02   100904
  1.721516e+00   1.209753e+01   1.226207e-02   3.712582e-02   107036
  1.764192e+00   1.266564e+01   1.235795e-02   3.777144e-02   113362
  1.806923e+00   1.324122e+01   1.228837e-02   3.857564e-02   118176
  1.849351e+00   1.378558e+01   1.221864e-02   3.936077e-02   122944
  1.891857e+00   1.434270e+01   1.233203e-02   3.954318e-02   129902
  1.934420e+00   1.498746e+01   1.224691e-02   4.108732e-02   134944
  1.976863e+00   1.545444e+01   1.225992e-02   4.106401e-02   140952
  2.019285e+00   1.612206e+01   1.225865e-02   4.208002e-02   147072
  2.061737e+00   1.654567e+01   1.224320e-02   4.238864e-02   153382
  2.104357e+00   1.729787e+01   1.233049e-02   4.297555e-02   160952
  2.147003e+00   1.770590e+01   1.228118e-02   4.335343e-02   166640
  2.189431e+00   1.843897e+01   1.222861e-02   4.458307e-02   172448
  2.231915e+00   1.899220e+01   1.231031e-02   4.481831e-02   180594
  2.274471e+00   1.971667e+01   1.224284e-02   4.577228e-02   186556
  2.316888e+00   2.024236e+01   1.225358e-02   4.595232e-02   193528
  2.359297e+00   2.099511e+01   1.224273e-02   4.670854e-02   200626
  2.401844e+00   2.150383e+01   1.230642e-02   4.716725e-02   209256
  2.444460e+00   2.213575e+01   1.227865e-02   4.808527e-02   216020
  2.487004e+00   2.273507e+01   1.230299e-02   4.831129e-02   223768
  2.529444e+00   2.334669e+01   1.222313e-02   4.847677e-02   230234
  2.571955e+00   2.392980e+01   1.229969e-02   4.879608e-02   239800
  2.614499e+00   2.459678e+01   1.225221e-02   4.958116e-02   246568
  2.656957e+00   2.508304e+01   1.227331e-02   4.977716e-02   254828
  2.699414e+00   2.581384e+01   1.225769e-02   5.056634e-02   263074
  2.741981e+00   2.645173e+01   1.228604e-02   5.069990e-02   272312
  2.784554e+00   2.708794e+01   1.228079e-02   5.114686e-02   280376
  2.827093e+00   2.775286e+01   1.228600e-02   5.162669e-02   288884
  2.869605e+00   2.828655e+01   1.227401e-02   5.203359e-02   297602
  2.912071e+00   2.870920e+01   1.223046e-02   5.209432e-02   305520
  2.954561e+00   2.952155e+01   1.230079e-02   5.236428e-02   315976
  2.996984e+00   3.020694e+01   1.221089e-02   5.326488e-02   322778
  3.039488e+00   3.080924e+01   1.232008e-02   5.321707e-02   335372
  3.082114e+00   3.137227e+01   1.227327e-02   5.343230e-02   343464
  3.124654e+00   3.213951e+01   1.228282e-02   5.416543e-02   352912
  3.167174e+00   3.251943e+01   1.228199e-02   5.401065e-02   362666
  3.209689e+00   3.320338e+01   1.225476e-02   5.428947e-02   371884
  3.252186e+00   3.382683e+01   1.227971e-02   5.466997e-02   382280
  3.294633e+00   3.444909e+01   1.224302e-02   5.511673e-02   390888
  3.337059e+00   3.506728e+01   1.226867e-02   5.527161e-02   402234
  3.379565e+00   3.549150e+01   1.225933e-02   5.539751e-02   412576
  3.422105e+00   3.599516e+01   1.228715e-02   5.510885e-02   423732
  3.464636e+00   3.665344e+01   1.227257e-02   5.559463e-02   433624
  3.507180e+00   3.706691e+01   1.228881e-02   5.550761e-02   445154
  3.549739e+00   3.792170e+01   1.227656e-02   5.628567e-02   455584
  3.592238e+00   3.829695e+01   1.225887e-02   5.615320e-02   465588
  3.634685e+00   3.886331e+01   1.226065e-02   5.639001e-02   476762
  3.677219e+00   3.948472e+01   1.229242e-02   5.620884e-02   489552
  3.719789e+00   3.990539e+01   1.227853e-02   5.631632e-02   500328
  3.762251e+00   4.039426e+01   1.223705e-02   5.651005e-02   509852
  3.804741e+00   4.114718e+01   1.229735e-02   5.650668e-02   524234
  3.847275e+00   4.166817e+01   1.224781e-02   5.713906e-02   534104
  3.889779e+00   4.206150e+01   1.228211e-02   5.715532e-02   547048
  3.932320e+00   4.246688e+01   1.229545e-02   5.668881e-02   559328
  3.974872e+00   4.312178e+01   1.228346e-02   5.686614e-02   571326
  4.017355e+00   4.356421e+01   1.224147e-02   5.699046e-02   581920
  4.059804e+00   4.418783e+01   1.225835e-02   5.742225e-02   594832
  4.102282e+00   4.462270e+01   1.227222e-02   5.718288e-02   608048
  4.144825e+00   4.525873e+01   1.228101e-02   5.739821e-02   621526
  4.187356e+00   4.563191e+01   1.226445e-02   5.744386e-02   633240
  4.229822e+00   4.600404e+01   1.225981e-02   5.717545e-02   645472
  4.272346e+00   4.661962e+01   1.230137e-02   5.753441e-02   660906
  4.314903e+00   4.718577e+01   1.227030e-02   5.763642e-02   672856
  4.357425e+00   4.780169e+01   1.226838e-02   5.763042e-02   685980
  4.399921e+00   4.824852e+01   1.227191e-02   5.761358e-02   699256
  4.442476e+00   4.861574e+01   1.229990e-02   5.734039e-02   714730
  4.484986e+00   4.901400e+01   1.223739e-02   5.762233e-02   725152
  4.527452e+00   4.957720e+01   1.227054e-02   5.768012e-02   740420
  4.569941e+00   5.012383e+01   1.227636e-02   5.769403e-02   754312
  4.612456e+00   5.048433e+01   1.227959e-02   5.745724e-02   769114
  4.654996e+00   5.094814e+01   1.227684e-02   5.774839e-02   783488
  4.697459e+00   5.141737e+01   1.223560e-02   5.766745e-02   794968
  4.739925e+00   5.186373e+01   1.228043e-02   5.756265e-02   812366
  4.782438e+00   5.241260e+01   1.226054e-02   5.789196e-02   825976
  4.825000e+00   5.281204e+01   1.230088e-02   5.753059e-02   843352
  4.867591e+00   5.331939e+01   1.229290e-02   5.751786e-02   857280
  4.910094e+00   5.359586e+01   1.225276e-02   5.743644e-02   869542
  4.952587e+00   5.408600e+01   1.228301e-02   5.749405e-02   887128
  4.995087e+00   5.427239e+01   1.225266e-02   5.721650e-02   900032
  5.037553e+00   5.495825e+01   1.226951e-02   5.729328e-02   916560
  5.080018e+00   5.518093e+01   1.224713e-02   5.720645e-02   930922
  5.122540e+00   5.555387e+01   1.228718e-02   5.689863e-02   949844
  5.165149e+00   5.607994e+01   1.230776e-02   5.716047e-02   966736
  5.207698e+00   5.645791e+01   1.226328e-02   5.718840e-02   978776
  5.250149e+00   5.703016e+01   1.225655e-02   5.710805e-02   994522
  5.292642e+00   5.721295e+01   1.227563e-02   5.693626e-02   1012420
  5.335176e+00   5.760428e+01   1.228639e-02   5.682967e-02   1029408
  5.377640e+00   5.805646e+01   1.223362e-02   5.674413e-02   1041658
  5.420127e+00   5.828678e+01   1.228953e-02   5.652534e-02   1063520
  5.462635e+00   5.865238e+01   1.224276e-02   5.644602e-02   1075808
  5.505175e+00   5.901816e+01   1.232008e-02   5.628646e-02   1098956
  5.547712e+00   5.937570e+01   1.224668e-02   5.642523e-02   1109810
  5.590179e+00   5.981950e+01   1.226115e-02   5.640769e-02   1128608
  5.632713e+00   6.006963e+01   1.229436e-02   5.606810e-02   1148264
  5.675250e+00   6.047667e+01   1.227167e-02   5.600054e-02   1163252
  5.717744e+00   6.095242e+01   1.226828e-02   5.606242e-02   1181042
  5.760239e+00   6.125790e+01   1.225730e-02   5.581057e-02   1197848
  5.802769e+00   6.137883e+01   1.229495e-02   5.567835e-02   1218848
  5.845291e+00   6.173698e+01   1.225944e-02   5.570315e-02   1232916
  5.887780e+00   6.218109e+01   1.227538e-02   5.546202e-02   1253002
  5.930266e+00   6.242684e+01   1.224914e-02   5.551464e-02   1268576
  5.972763e+00   6.273099e+01   1.228621e-02   5.526262e-02   1290128
  6.015287e+00   6.307178e+01   1.227337e-02   5.523291e-02   1307402
  6.057820e+00   6.330707e+01   1.227649e-02   5.497936e-02   1327028
  6.100333e+00   6.360597e+01   1.225988e-02   5.486102e-02   1343648
  6.142842e+00   6.391474e+01   1.228087e-02   5.457244e-02   1364096
  6.185363e+00   6.435129e+01   1.227580e-02   5.477977e-02   1382730
  6.227896e+00   6.451613e+01   1.227503e-02   5.447666e-02   1402164
  6.270416e+00   6.487315e+01   1.227264e-02   5.435574e-02   1420464
  6.312883e+00   6.490044e+01   1.225519e-02   5.415996e-02   1437368
  6.355387e+00   6.536450e+01   1.228857e-02   5.404586e-02   1461530
  6.397919e+00   6.565936e+01   1.226028e-02   5.397568e-02   1478264
  6.440432e+00   6.591463e+01   1.227561e-02   5.380749e-02   1499356
  6.482926e+00   6.632463e+01   1.226095e-02   5.395340e-02   1517016
  6.525439e+00   6.648761e+01   1.228340e-02   5.351167e-02   1540090
  6.567953e+00   6.675693e+01   1.226146e-02   5.350166e-02   1557360
  6.610434e+00   6.699209e+01   1.226770e-02   5.332103e-02   1577780
  6.652969e+00   6.735076e+01   1.230043e-02   5.326811e-02   1602578
  6.695499e+00   6.756547e+01   1.225417e-02   5.313536e-02   1617672
  6.737992e+00   6.788354e+01   1.227613e-02   5.295027e-02   1641016
  6.780486e+00   6.804871e+01   1.226032e-02   5.279182e-02   1659416
  6.822983e+00   6.839745e+01   1.227372e-02   5.281849e-02   1682670
  6.865529e+00   6.851099e+01   1.228276e-02   5.246203e-02   1705256
  6.908096e+00   6.879073e+01   1.228756e-02   5.236657e-02   1726312
  6.950582e+00   6.905210e+01   1.225056e-02   5.237209e-02   1741880
  6.993044e+00   6.921133e+01   1.226862e-02   5.202998e-02   1766454
  7.035588e+00   6.952009e+01   1.229242e-02   5.192741e-02   1791784
  7.078111e+00   6.972569e+01   1.225558e-02   5.183222e-02   1807712
  7.120554e+00   6.984549e+01   1.225110e-02   5.172407e-02   1829002
  7.163037e+00   7.004100e+01   1.226905e-02   5.145081e-02   1854216
  7.205602e+00   7.051736e+01   1.229852e-02   5.152172e-02   1880156
  7.248150e+00   7.049271e+01   1.227340e-02   5.122718e-02   1897568
  7.290651e+00   7.077605e+01   1.227390e-02   5.103802e-02   1920458
  7.333153e+00   7.106380e+01   1.226399e-02   5.095112e-02   1942208
  7.375659e+00   7.124818e+01   1.227125e-02   5.080342e-02   1965612
  7.418175e+00   7.131097e+01   1.227855e-02   5.058951e-02   1989000
  7.460671e+00   7.158225e+01   1.225786e-02   5.058321e-02   2009114
  7.503166e+00   7.185044e+01   1.226960e-02   5.030783e-02   2034464
  7.545695e+00   7.200347e+01   1.228070e-02   5.014855e-02   2058476
  7.588207e+00   7.224258e+01   1.227216e-02   5.003777e-02   2079648
  7.630693e+00   7.222944e+01   1.226356e-02   4.987148e-02   2102578
  7.673222e+00   7.249296e+01   1.228297e-02   4.962647e-02   2129928
  7.715766e+00   7.271718e+01   1.227893e-02   4.946650e-02   2152096
  7.758252e+00   7.293202e+01   1.225143e-02   4.943903e-02   2171142
  7.800741e+00   7.312712e+01   1.227660e-02   4.935490e-02   2200248
  7.843296e+00   7.313904e+01   1.228407e-02   4.903229e-02   2225216
  7.885842e+00   7.332795e+01   1.228377e-02   4.890348e-02   2248448
  7.928336e+00   7.353002e+01   1.225709e-02   4.886134e-02   2267942
  7.970840e+00   7.366336e+01   1.228420e-02   4.853869e-02   2298072
  8.013348e+00   7.382692e+01   1.225627e-02   4.856480e-02   2317272
  8.055842e+00   7.396940e+01   1.227899e-02   4.828810e-02   2345808
  8.098322e+00   7.401931e+01   1.224988e-02   4.817424e-02   2365650
  8.140823e+00   7.422367e+01   1.227972e-02   4.792055e-02   2396940
  8.183368e+00   7.437549e+01   1.227975e-02   4.783474e-02   2421272
  8.225892e+00   7.460908e+01   1.227360e-02   4.775298e-02   2444576
  8.268407e+00   7.467353e+01   1.227899e-02   4.752044e-02   2471490
  8.310912e+00   7.472501e+01   1.225942e-02   4.734121e-02   2493180
  8.353397e+00   7.506344e+01   1.227208e-02   4.722439e-02   2520952
  8.395888e+00   7.495612e+01   1.226128e-02   4.698802e-02   2544946
  8.438392e+00   7.520120e+01   1.227324e-02   4.691622e-02   2573856
  8.480922e+00   7.528763e+01   1.227611e-02   4.669197e-02   2600016
  8.523447e+00   7.542589e+01   1.227641e-02   4.652261e-02   2625484
  8.565959e+00   7.547910e+01   1.227232e-02   4.642625e-02   2651122
  8.608519e+00   7.547931e+01   1.229739e-02   4.607187e-02   2683488
  8.651014e+00   7.569645e+01   1.223786e-02   4.615832e-02   2696352
  8.693483e+00   7.582907e+01   1.228468e-02   4.588018e-02   2733020
  8.736008e+00   7.592002e+01   1.227012e-02   4.574314e-02   2757378
  8.778525e+00   7.598684e+01   1.227177e-02   4.550922e-02   2784864
  8.821036e+00   7.608622e+01   1.227124e-02   4.537752e-02   2811168
  8.863496e+00   7.620819e+01   1.224424e-02   4.523509e-02   2832274
  8.906020e+00   7.634802e+01   1.230244e-02   4.497547e-02   2873636
  8.948567e+00   7.624172e+01   1.225951e-02   4.485510e-02   2890496
  8.991066e+00   7.639640e+01   1.227940e-02   4.467302e-02   2921800
  9.033598e+00   7.640449e+01   1.228441e-02   4.440073e-02   2951298
  9.076126e+00   7.650733e+01   1.226510e-02   4.433538e-02   2975476
  9.118654e+00   7.670478e+01   1.228550e-02   4.421933e-02   3007728
  9.161142e+00   7.671191e+01   1.224754e-02   4.412749e-02   3025776
  9.203640e+00   7.668484e+01   1.229182e-02   4.381414e-02   3065762
  9.246160e+00   7.683377e+01   1.225283e-02   4.379330e-02   3084856
  9.288649e+00   7.690393e+01   1.227594e-02   4.356378e-02   3118044
  9.331129e+00   7.704371e+01   1.225728e-02   4.349868e-02   3141352
  9.373640e+00   7.698869e+01   1.228814e-02   4.318194e-02   3179274
  9.416185e+00   7.712140e+01   1.227073e-02   4.309152e-02   3204120
  9.458671e+00   7.708009e+01   1.225444e-02   4.297548e-02   3227900
  9.501151e+00   7.718421e+01   1.227489e-02   4.277008e-02   3262394
  9.543701e+00   7.724229e+01   1.228726e-02   4.255297e-02   3295680
  9.586236e+00   7.728860e+01   1.226866e-02   4.248407e-02   3319560
  9.628737e+00   7.740623e+01   1.227228e-02   4.229818e-02   3348972
  9.671240e+00   7.742802e+01   1.227416e-02   4.207757e-02   3379722
  9.713763e+00   7.737804e+01   1.227339e-02   4.193417e-02   3410720
  9.756299e+00   7.750169e+01   1.227807e-02   4.182850e-02   3441504
  9.798787e+00   7.744527e+01   1.225320e-02   4.164734e-02   3463624
  9.841266e+00   7.749173e+01   1.227217e-02   4.143721e-02   3499790
  9.883803e+00   7.754050e+01   1.228281e-02   4.126694e-02   3533560
  9.926350e+00   7.762568e+01   1.227932e-02   4.118952e-02   3561920
  9.968836e+00   7.760521e+01   1.225683e-02   4.099227e-02   3585208
  1.001132e+01   7.771695e+01   1.227674e-02   4.079624e-02   3622518
  1.005387e+01   7.757638e+01   1.228938e-02   4.051576e-02   3657584
  1.009637e+01   7.762282e+01   1.225003e-02   4.046923e-02   3676440
  1.013883e+01   7.762722e+01   1.226093e-02   4.033210e-02   3711282
  1.018134e+01   7.766184e+01   1.227505e-02   4.012867e-02   3747696
  1.022386e+01   7.769703e+01   1.226890e-02   3.996219e-02   3776188
  1.026640e+01   7.764120e+01   1.229793e-02   3.972673e-02   3815304
  1.030893e+01   7.759234e+01   1.225864e-02   3.963587e-02   3835370
  1.035143e+01   7.766945e+01   1.227570e-02   3.944797e-02   3873424
  1.039395e+01   7.768031e+01   1.227191e-02   3.934857e-02   3903420
  1.043647e+01   7.762375e+01   1.228014e-02   3.915285e-02   3937624
  1.047898e+01   7.760075e+01   1.226404e-02   3.897350e-02   3965658
  1.052150e+01   7.767047e+01   1.227921e-02   3.881290e-02   4002984
  1.056400e+01   7.754196e+01   1.226054e-02   3.866450e-02   4027928
  1.060647e+01   7.752588e+01   1.225976e-02   3.850046e-02   4059844
  1.064896e+01   7.765236e+01   1.227978e-02   3.835024e-02   4100338
  1.069151e+01   7.765426e+01   1.227651e-02   3.820945e-02   4132264
  1.073403e+01   7.767700e+01   1.227390e-02   3.809057e-02   4163216
  1.077652e+01   7.751973e+01   1.226459e-02   3.788003e-02   4193350
  1.081904e+01   7.758576e+01   1.228427e-02   3.771410e-02   4234456
  1.086156e+01   7.746610e+01   1.225632e-02   3.754290e-02   4257264
  1.090405e+01   7.745316e+01   1.227910e-02   3.738626e-02   4297352
  1.094656e+01   7.742492e+01   1.226998e-02   3.722790e-02   4328642
  1.098909e+01   7.739603e+01   1.228265e-02   3.696985e-02   4367948
  1.103158e+01   7.734017e+01   1.224720e-02   3.687120e-02   4388384
  1.107408e+01   7.732293e+01   1.228899e-02   3.670782e-02   4436648
  1.111661e+01   7.736881e+01   1.227199e-02   3.663996e-02   4465658
  1.115915e+01   7.728345e+01   1.227871e-02   3.638761e-02   4502948
  1.120165e+01   7.721776e+01   1.225915e-02   3.631827e-02   4528880
  1.124413e+01   7.713424e+01   1.226872e-02   3.613606e-02   4566290
  1.128665e+01   7.712684e+01   1.228262e-02   3.600683e-02   4606856
  1.132917e+01   7.711665e+01   1.226621e-02   3.583973e-02   4635380
  1.137166e+01   7.692683e+01   1.226853e-02   3.562880e-02   4670384
  1.141417e+01   7.703573e+01   1.227665e-02   3.552097e-02   4709258
  1.145672e+01   7.692466e+01   1.228130e-02   3.531336e-02   4747352
  1.149922e+01   7.682040e+01   1.225462e-02   3.516568e-02   4771664
  1.154171e+01   7.674606e+01   1.227440e-02   3.497179e-02   4813532
  1.158423e+01   7.672437e+01   1.228175e-02   3.482311e-02   4852322
  1.162677e+01   7.667437e+01   1.227605e-02   3.468472e-02   4886480
  1.166928e+01   7.660112e+01   1.226516e-02   3.455811e-02   4917248
  1.171175e+01   7.659565e+01   1.226039e-02   3.444145e-02   4950828
  1.175428e+01   7.660492e+01   1.229115e-02   3.430539e-02   5000170
  1.179682e+01   7.636462e+01   1.226743e-02   3.405821e-02   5026952
  1.183930e+01   7.636981e+01   1.225870e-02   3.395614e-02   5058752
  1.188178e+01   7.638116e+01   1.227096e-02   3.383324e-02   5100722
  1.192431e+01   7.629351e+01   1.227592e-02   3.363991e-02   5140124
  1.196682e+01   7.616134e+01   1.227175e-02   3.348979e-02   5174072
  1.200934e+01   7.604573e+01   1.227571e-02   3.333269e-02   5211608
  1.205185e+01   7.611273e+01   1.227167e-02   3.324208e-02   5247794
  1.209436e+01   7.588306e+01   1.226763e-02   3.303328e-02   5284196
  1.213689e+01   7.585088e+01   1.228663e-02   3.290146e-02   5328800
