# power spectrum of delta_N
# redshift z=2.291371
# k              Pk             sigma(k)       sigma(Pk)      count
  3.132125e-02   1.990085e-03   4.792454e-03   3.699461e-04   18
  6.745391e-02   2.258348e-02   1.159167e-02   2.262938e-03   152
  1.090113e-01   5.222134e-02   1.224347e-02   2.403073e-03   416
  1.497134e-01   8.578556e-02   1.165022e-02   3.212874e-03   770
  1.923472e-01   1.215021e-01   1.247860e-02   3.437501e-03   1364
  2.350444e-01   1.532600e-01   1.221820e-02   3.441662e-03   1976
  2.775930e-01   1.917432e-01   1.245022e-02   3.715952e-03   2792
  3.193857e-01   2.316521e-01   1.188722e-02   3.840426e-03   3578
  3.615292e-01   2.633706e-01   1.219808e-02   3.844992e-03   4724
  4.045273e-01   3.069483e-01   1.253838e-02   3.922896e-03   6032
  4.469941e-01   3.351674e-01   1.206640e-02   4.162149e-03   7072
  4.890810e-01   3.870251e-01   1.222555e-02   4.265024e-03   8634
  5.318886e-01   4.376897e-01   1.238102e-02   4.394533e-03   10336
  5.746708e-01   4.826302e-01   1.232804e-02   4.320923e-03   11940
  6.167490e-01   5.250391e-01   1.208586e-02   4.535767e-03   13490
  6.588740e-01   5.879513e-01   1.221778e-02   4.675459e-03   15656
  7.016595e-01   6.314278e-01   1.241043e-02   4.553364e-03   18008
  7.443680e-01   6.758853e-01   1.227786e-02   4.894604e-03   19964
  7.867827e-01   7.386526e-01   1.226437e-02   5.039857e-03   22354
  8.291404e-01   7.817324e-01   1.212327e-02   4.984658e-03   24648
  8.716536e-01   8.370705e-01   1.233244e-02   4.936717e-03   27592
  9.142068e-01   9.102571e-01   1.230127e-02   5.212250e-03   30152
  9.566749e-01   9.606900e-01   1.227622e-02   5.315880e-03   33046
  9.991233e-01   1.032961e+00   1.221538e-02   5.426322e-03   35992
  1.041693e+00   1.103141e+00   1.229906e-02   5.489907e-03   39304
  1.084289e+00   1.159330e+00   1.232858e-02   5.652707e-03   42608
  1.126820e+00   1.231177e+00   1.223307e-02   5.790674e-03   45758
  1.169340e+00   1.281107e+00   1.228914e-02   5.754343e-03   49536
  1.211695e+00   1.371213e+00   1.215683e-02   6.000871e-03   52488
  1.254054e+00   1.442503e+00   1.233851e-02   6.033127e-03   57034
  1.296605e+00   1.520625e+00   1.224458e-02   6.133973e-03   60648
  1.339187e+00   1.588992e+00   1.230532e-02   6.171604e-03   65044
  1.381689e+00   1.674727e+00   1.223104e-02   6.360835e-03   68720
  1.424202e+00   1.768870e+00   1.231312e-02   6.528825e-03   73538
  1.466870e+00   1.849831e+00   1.230776e-02   6.614576e-03   78080
  1.509304e+00   1.932816e+00   1.215944e-02   6.784158e-03   81572
  1.551677e+00   2.027772e+00   1.232495e-02   6.902056e-03   87248
  1.594353e+00   2.121374e+00   1.233837e-02   7.006172e-03   92266
  1.636929e+00   2.190246e+00   1.225268e-02   7.037744e-03   96696
  1.679216e+00   2.302865e+00   1.215041e-02   7.219202e-03   100904
  1.721516e+00   2.398679e+00   1.226207e-02   7.394158e-03   107036
  1.764192e+00   2.507558e+00   1.235795e-02   7.446818e-03   113362
  1.806923e+00   2.610152e+00   1.228837e-02   7.590133e-03   118176
  1.849351e+00   2.725457e+00   1.221864e-02   7.763703e-03   122944
  1.891857e+00   2.816737e+00   1.233203e-02   7.811445e-03   129902
  1.934420e+00   2.924030e+00   1.224691e-02   7.985641e-03   134944
  1.976863e+00   3.024978e+00   1.225992e-02   8.073929e-03   140952
  2.019285e+00   3.139986e+00   1.225865e-02   8.213002e-03   147072
  2.061737e+00   3.265960e+00   1.224320e-02   8.345662e-03   153382
  2.104357e+00   3.381583e+00   1.233049e-02   8.372987e-03   160952
  2.147003e+00   3.487734e+00   1.228118e-02   8.479877e-03   166640
  2.189431e+00   3.582953e+00   1.222861e-02   8.645708e-03   172448
  2.231915e+00   3.733592e+00   1.231031e-02   8.766029e-03   180594
  2.274471e+00   3.821368e+00   1.224284e-02   8.859358e-03   186556
  2.316888e+00   3.973617e+00   1.225358e-02   9.076831e-03   193528
  2.359297e+00   4.100531e+00   1.224273e-02   9.233759e-03   200626
  2.401844e+00   4.247678e+00   1.230642e-02   9.319293e-03   209256
  2.444460e+00   4.362529e+00   1.227865e-02   9.382346e-03   216020
  2.487004e+00   4.492423e+00   1.230299e-02   9.481857e-03   223768
  2.529444e+00   4.647194e+00   1.222313e-02   9.703542e-03   230234
  2.571955e+00   4.743316e+00   1.229969e-02   9.648139e-03   239800
  2.614499e+00   4.892779e+00   1.225221e-02   9.839006e-03   246568
  2.656957e+00   5.067969e+00   1.227331e-02   1.001661e-02   254828
  2.699414e+00   5.146262e+00   1.225769e-02   1.005383e-02   263074
  2.741981e+00   5.285976e+00   1.228604e-02   1.013639e-02   272312
  2.784554e+00   5.456461e+00   1.228079e-02   1.028288e-02   280376
  2.827093e+00   5.601773e+00   1.228600e-02   1.043373e-02   288884
  2.869605e+00   5.733030e+00   1.227401e-02   1.047198e-02   297602
  2.912071e+00   5.910570e+00   1.223046e-02   1.062444e-02   305520
  2.954561e+00   6.030661e+00   1.230079e-02   1.072728e-02   315976
  2.996984e+00   6.181027e+00   1.221089e-02   1.087159e-02   322778
  3.039488e+00   6.338764e+00   1.232008e-02   1.094764e-02   335372
  3.082114e+00   6.494811e+00   1.227327e-02   1.108702e-02   343464
  3.124654e+00   6.640294e+00   1.228282e-02   1.117730e-02   352912
  3.167174e+00   6.779882e+00   1.228199e-02   1.124676e-02   362666
  3.209689e+00   6.925712e+00   1.225476e-02   1.134693e-02   371884
  3.252186e+00   7.089861e+00   1.227971e-02   1.146612e-02   382280
  3.294633e+00   7.224523e+00   1.224302e-02   1.155192e-02   390888
  3.337059e+00   7.386870e+00   1.226867e-02   1.162199e-02   402234
  3.379565e+00   7.562219e+00   1.225933e-02   1.175773e-02   412576
  3.422105e+00   7.714738e+00   1.228715e-02   1.185985e-02   423732
  3.464636e+00   7.886329e+00   1.227257e-02   1.199068e-02   433624
  3.507180e+00   8.035256e+00   1.228881e-02   1.202826e-02   445154
  3.549739e+00   8.190670e+00   1.227656e-02   1.211100e-02   455584
  3.592238e+00   8.356179e+00   1.225887e-02   1.230817e-02   465588
  3.634685e+00   8.521397e+00   1.226065e-02   1.233467e-02   476762
  3.677219e+00   8.665769e+00   1.229242e-02   1.235813e-02   489552
  3.719789e+00   8.855906e+00   1.227853e-02   1.253438e-02   500328
  3.762251e+00   9.019891e+00   1.223705e-02   1.262468e-02   509852
  3.804741e+00   9.185640e+00   1.229735e-02   1.269503e-02   524234
  3.847275e+00   9.377828e+00   1.224781e-02   1.283150e-02   534104
  3.889779e+00   9.471394e+00   1.228211e-02   1.281595e-02   547048
  3.932320e+00   9.698223e+00   1.229545e-02   1.298156e-02   559328
  3.974872e+00   9.862276e+00   1.228346e-02   1.304303e-02   571326
  4.017355e+00   1.000848e+01   1.224147e-02   1.311733e-02   581920
  4.059804e+00   1.019156e+01   1.225835e-02   1.323366e-02   594832
  4.102282e+00   1.032339e+01   1.227222e-02   1.324217e-02   608048
  4.144825e+00   1.051146e+01   1.228101e-02   1.334577e-02   621526
  4.187356e+00   1.066296e+01   1.226445e-02   1.341367e-02   633240
  4.229822e+00   1.083187e+01   1.225981e-02   1.345978e-02   645472
  4.272346e+00   1.105425e+01   1.230137e-02   1.361160e-02   660906
  4.314903e+00   1.122533e+01   1.227030e-02   1.366601e-02   672856
  4.357425e+00   1.136728e+01   1.226838e-02   1.374650e-02   685980
  4.399921e+00   1.152739e+01   1.227191e-02   1.379978e-02   699256
  4.442476e+00   1.165726e+01   1.229990e-02   1.379111e-02   714730
  4.484986e+00   1.184157e+01   1.223739e-02   1.391020e-02   725152
  4.527452e+00   1.201814e+01   1.227054e-02   1.394625e-02   740420
  4.569941e+00   1.218746e+01   1.227636e-02   1.406021e-02   754312
  4.612456e+00   1.232988e+01   1.227959e-02   1.405818e-02   769114
  4.654996e+00   1.256219e+01   1.227684e-02   1.421863e-02   783488
  4.697459e+00   1.270816e+01   1.223560e-02   1.428868e-02   794968
  4.739925e+00   1.284663e+01   1.228043e-02   1.425680e-02   812366
  4.782438e+00   1.303153e+01   1.226054e-02   1.438642e-02   825976
  4.825000e+00   1.316915e+01   1.230088e-02   1.431424e-02   843352
  4.867591e+00   1.332343e+01   1.229290e-02   1.441549e-02   857280
  4.910094e+00   1.350191e+01   1.225276e-02   1.446588e-02   869542
  4.952587e+00   1.369968e+01   1.228301e-02   1.454469e-02   887128
  4.995087e+00   1.382625e+01   1.225266e-02   1.457696e-02   900032
  5.037553e+00   1.407569e+01   1.226951e-02   1.478273e-02   916560
  5.080018e+00   1.417843e+01   1.224713e-02   1.465690e-02   930922
  5.122540e+00   1.429925e+01   1.228718e-02   1.471460e-02   949844
  5.165149e+00   1.450635e+01   1.230776e-02   1.474044e-02   966736
  5.207698e+00   1.465362e+01   1.226328e-02   1.481319e-02   978776
  5.250149e+00   1.480199e+01   1.225655e-02   1.482594e-02   994522
  5.292642e+00   1.496040e+01   1.227563e-02   1.486120e-02   1012420
  5.335176e+00   1.512471e+01   1.228639e-02   1.485791e-02   1029408
  5.377640e+00   1.530363e+01   1.223362e-02   1.503002e-02   1041658
  5.420127e+00   1.540128e+01   1.228953e-02   1.495097e-02   1063520
  5.462635e+00   1.562471e+01   1.224276e-02   1.506147e-02   1075808
  5.505175e+00   1.573102e+01   1.232008e-02   1.497289e-02   1098956
  5.547712e+00   1.590485e+01   1.224668e-02   1.508654e-02   1109810
  5.590179e+00   1.606546e+01   1.226115e-02   1.513709e-02   1128608
  5.632713e+00   1.619460e+01   1.229436e-02   1.511953e-02   1148264
  5.675250e+00   1.636967e+01   1.227167e-02   1.515614e-02   1163252
  5.717744e+00   1.649016e+01   1.226828e-02   1.516050e-02   1181042
  5.760239e+00   1.667166e+01   1.225730e-02   1.524963e-02   1197848
  5.802769e+00   1.680541e+01   1.229495e-02   1.521495e-02   1218848
  5.845291e+00   1.692981e+01   1.225944e-02   1.521631e-02   1232916
  5.887780e+00   1.708935e+01   1.227538e-02   1.527872e-02   1253002
  5.930266e+00   1.722452e+01   1.224914e-02   1.530580e-02   1268576
  5.972763e+00   1.736646e+01   1.228621e-02   1.527876e-02   1290128
  6.015287e+00   1.755710e+01   1.227337e-02   1.536657e-02   1307402
  6.057820e+00   1.768912e+01   1.227649e-02   1.535393e-02   1327028
  6.100333e+00   1.784495e+01   1.225988e-02   1.538098e-02   1343648
  6.142842e+00   1.798798e+01   1.228087e-02   1.540919e-02   1364096
  6.185363e+00   1.812352e+01   1.227580e-02   1.539824e-02   1382730
  6.227896e+00   1.826226e+01   1.227503e-02   1.543397e-02   1402164
  6.270416e+00   1.836823e+01   1.227264e-02   1.541541e-02   1420464
  6.312883e+00   1.853956e+01   1.225519e-02   1.547738e-02   1437368
  6.355387e+00   1.868652e+01   1.228857e-02   1.542697e-02   1461530
  6.397919e+00   1.878277e+01   1.226028e-02   1.544550e-02   1478264
  6.440432e+00   1.898962e+01   1.227561e-02   1.549446e-02   1499356
  6.482926e+00   1.907563e+01   1.226095e-02   1.551682e-02   1517016
  6.525439e+00   1.920812e+01   1.228340e-02   1.547312e-02   1540090
  6.567953e+00   1.936782e+01   1.226146e-02   1.553147e-02   1557360
  6.610434e+00   1.947608e+01   1.226770e-02   1.549942e-02   1577780
  6.652969e+00   1.960419e+01   1.230043e-02   1.548186e-02   1602578
  6.695499e+00   1.976093e+01   1.225417e-02   1.552643e-02   1617672
  6.737992e+00   1.988168e+01   1.227613e-02   1.553107e-02   1641016
  6.780486e+00   2.001043e+01   1.226032e-02   1.551054e-02   1659416
  6.822983e+00   2.014987e+01   1.227372e-02   1.554377e-02   1682670
  6.865529e+00   2.022054e+01   1.228276e-02   1.550563e-02   1705256
  6.908096e+00   2.035363e+01   1.228756e-02   1.547033e-02   1726312
  6.950582e+00   2.049532e+01   1.225056e-02   1.551699e-02   1741880
  6.993044e+00   2.061160e+01   1.226862e-02   1.552069e-02   1766454
  7.035588e+00   2.070739e+01   1.229242e-02   1.547393e-02   1791784
  7.078111e+00   2.088378e+01   1.225558e-02   1.551863e-02   1807712
  7.120554e+00   2.097063e+01   1.225110e-02   1.549350e-02   1829002
  7.163037e+00   2.111143e+01   1.226905e-02   1.547575e-02   1854216
  7.205602e+00   2.120919e+01   1.229852e-02   1.546237e-02   1880156
  7.248150e+00   2.132911e+01   1.227340e-02   1.548561e-02   1897568
  7.290651e+00   2.143879e+01   1.227390e-02   1.547072e-02   1920458
  7.333153e+00   2.155453e+01   1.226399e-02   1.546613e-02   1942208
  7.375659e+00   2.164828e+01   1.227125e-02   1.545597e-02   1965612
  7.418175e+00   2.174043e+01   1.227855e-02   1.542734e-02   1989000
  7.460671e+00   2.189980e+01   1.225786e-02   1.544530e-02   2009114
  7.503166e+00   2.200380e+01   1.226960e-02   1.543976e-02   2034464
  7.545695e+00   2.210365e+01   1.228070e-02   1.543283e-02   2058476
  7.588207e+00   2.217491e+01   1.227216e-02   1.538597e-02   2079648
  7.630693e+00   2.227645e+01   1.226356e-02   1.535739e-02   2102578
  7.673222e+00   2.239927e+01   1.228297e-02   1.535372e-02   2129928
  7.715766e+00   2.252953e+01   1.227893e-02   1.536467e-02   2152096
  7.758252e+00   2.261769e+01   1.225143e-02   1.534896e-02   2171142
  7.800741e+00   2.273073e+01   1.227660e-02   1.533069e-02   2200248
  7.843296e+00   2.284761e+01   1.228407e-02   1.531543e-02   2225216
  7.885842e+00   2.292568e+01   1.228377e-02   1.526394e-02   2248448
  7.928336e+00   2.306467e+01   1.225709e-02   1.530848e-02   2267942
  7.970840e+00   2.312162e+01   1.228420e-02   1.528788e-02   2298072
  8.013348e+00   2.320481e+01   1.225627e-02   1.524278e-02   2317272
  8.055842e+00   2.334938e+01   1.227899e-02   1.525291e-02   2345808
  8.098322e+00   2.338824e+01   1.224988e-02   1.522470e-02   2365650
  8.140823e+00   2.349065e+01   1.227972e-02   1.516810e-02   2396940
  8.183368e+00   2.360540e+01   1.227975e-02   1.514383e-02   2421272
  8.225892e+00   2.365571e+01   1.227360e-02   1.515778e-02   2444576
  8.268407e+00   2.371284e+01   1.227899e-02   1.506748e-02   2471490
  8.310912e+00   2.382841e+01   1.225942e-02   1.509432e-02   2493180
  8.353397e+00   2.391157e+01   1.227208e-02   1.504254e-02   2520952
  8.395888e+00   2.400828e+01   1.226128e-02   1.505907e-02   2544946
  8.438392e+00   2.407041e+01   1.227324e-02   1.500183e-02   2573856
  8.480922e+00   2.413555e+01   1.227611e-02   1.495869e-02   2600016
  8.523447e+00   2.424272e+01   1.227641e-02   1.495706e-02   2625484
  8.565959e+00   2.431960e+01   1.227232e-02   1.495741e-02   2651122
  8.608519e+00   2.438567e+01   1.229739e-02   1.489220e-02   2683488
  8.651014e+00   2.449679e+01   1.223786e-02   1.491056e-02   2696352
  8.693483e+00   2.452990e+01   1.228468e-02   1.484996e-02   2733020
  8.736008e+00   2.461854e+01   1.227012e-02   1.482947e-02   2757378
  8.778525e+00   2.470333e+01   1.227177e-02   1.478373e-02   2784864
  8.821036e+00   2.478549e+01   1.227124e-02   1.476506e-02   2811168
  8.863496e+00   2.484814e+01   1.224424e-02   1.477738e-02   2832274
  8.906020e+00   2.490213e+01   1.230244e-02   1.467235e-02   2873636
  8.948567e+00   2.499462e+01   1.225951e-02   1.472022e-02   2890496
  8.991066e+00   2.505933e+01   1.227940e-02   1.465117e-02   2921800
  9.033598e+00   2.505565e+01   1.228441e-02   1.459659e-02   2951298
  9.076126e+00   2.518538e+01   1.226510e-02   1.460447e-02   2975476
  9.118654e+00   2.521676e+01   1.228550e-02   1.454541e-02   3007728
  9.161142e+00   2.529666e+01   1.224754e-02   1.455837e-02   3025776
  9.203640e+00   2.534414e+01   1.229182e-02   1.447096e-02   3065762
  9.246160e+00   2.542293e+01   1.225283e-02   1.449127e-02   3084856
  9.288649e+00   2.549690e+01   1.227594e-02   1.444315e-02   3118044
  9.331129e+00   2.554545e+01   1.225728e-02   1.440253e-02   3141352
  9.373640e+00   2.559219e+01   1.228814e-02   1.436849e-02   3179274
  9.416185e+00   2.566999e+01   1.227073e-02   1.434600e-02   3204120
  9.458671e+00   2.574855e+01   1.225444e-02   1.432931e-02   3227900
  9.501151e+00   2.579971e+01   1.227489e-02   1.426728e-02   3262394
  9.543701e+00   2.587640e+01   1.228726e-02   1.423815e-02   3295680
  9.586236e+00   2.590915e+01   1.226866e-02   1.421310e-02   3319560
  9.628737e+00   2.591509e+01   1.227228e-02   1.416720e-02   3348972
  9.671240e+00   2.598074e+01   1.227416e-02   1.414236e-02   3379722
  9.713763e+00   2.603109e+01   1.227339e-02   1.408662e-02   3410720
  9.756299e+00   2.606935e+01   1.227807e-02   1.404588e-02   3441504
  9.798787e+00   2.611176e+01   1.225320e-02   1.403982e-02   3463624
  9.841266e+00   2.616918e+01   1.227217e-02   1.399334e-02   3499790
  9.883803e+00   2.623701e+01   1.228281e-02   1.395244e-02   3533560
  9.926350e+00   2.623065e+01   1.227932e-02   1.391442e-02   3561920
  9.968836e+00   2.633053e+01   1.225683e-02   1.389728e-02   3585208
  1.001132e+01   2.631248e+01   1.227674e-02   1.382171e-02   3622518
  1.005387e+01   2.641521e+01   1.228938e-02   1.379689e-02   3657584
  1.009637e+01   2.644304e+01   1.225003e-02   1.382510e-02   3676440
  1.013883e+01   2.643812e+01   1.226093e-02   1.369671e-02   3711282
  1.018134e+01   2.650681e+01   1.227505e-02   1.367556e-02   3747696
  1.022386e+01   2.655588e+01   1.226890e-02   1.366071e-02   3776188
  1.026640e+01   2.652167e+01   1.229793e-02   1.356412e-02   3815304
  1.030893e+01   2.659591e+01   1.225864e-02   1.359658e-02   3835370
  1.035143e+01   2.664616e+01   1.227570e-02   1.354609e-02   3873424
  1.039395e+01   2.667639e+01   1.227191e-02   1.350519e-02   3903420
  1.043647e+01   2.668107e+01   1.228014e-02   1.344397e-02   3937624
  1.047898e+01   2.674144e+01   1.226404e-02   1.342768e-02   3965658
  1.052150e+01   2.678799e+01   1.227921e-02   1.340217e-02   4002984
  1.056400e+01   2.682669e+01   1.226054e-02   1.337808e-02   4027928
  1.060647e+01   2.679334e+01   1.225976e-02   1.329770e-02   4059844
  1.064896e+01   2.687411e+01   1.227978e-02   1.326149e-02   4100338
  1.069151e+01   2.688524e+01   1.227651e-02   1.323208e-02   4132264
  1.073403e+01   2.694634e+01   1.227390e-02   1.320659e-02   4163216
  1.077652e+01   2.695647e+01   1.226459e-02   1.317469e-02   4193350
  1.081904e+01   2.695978e+01   1.228427e-02   1.309417e-02   4234456
  1.086156e+01   2.698327e+01   1.225632e-02   1.308094e-02   4257264
  1.090405e+01   2.704180e+01   1.227910e-02   1.304821e-02   4297352
  1.094656e+01   2.703529e+01   1.226998e-02   1.300253e-02   4328642
  1.098909e+01   2.707166e+01   1.228265e-02   1.295932e-02   4367948
  1.103158e+01   2.710268e+01   1.224720e-02   1.295308e-02   4388384
  1.107408e+01   2.711881e+01   1.228899e-02   1.286711e-02   4436648
  1.111661e+01   2.710916e+01   1.227199e-02   1.283496e-02   4465658
  1.115915e+01   2.714478e+01   1.227871e-02   1.279097e-02   4502948
  1.120165e+01   2.717552e+01   1.225915e-02   1.275540e-02   4528880
  1.124413e+01   2.718520e+01   1.226872e-02   1.272813e-02   4566290
  1.128665e+01   2.722215e+01   1.228262e-02   1.268582e-02   4606856
  1.132917e+01   2.719628e+01   1.226621e-02   1.263859e-02   4635380
  1.137166e+01   2.723880e+01   1.226853e-02   1.260024e-02   4670384
  1.141417e+01   2.725004e+01   1.227665e-02   1.256437e-02   4709258
  1.145672e+01   2.726177e+01   1.228130e-02   1.251926e-02   4747352
  1.149922e+01   2.725522e+01   1.225462e-02   1.248803e-02   4771664
  1.154171e+01   2.729308e+01   1.227440e-02   1.243080e-02   4813532
  1.158423e+01   2.728402e+01   1.228175e-02   1.239608e-02   4852322
  1.162677e+01   2.726767e+01   1.227605e-02   1.232236e-02   4886480
  1.166928e+01   2.731126e+01   1.226516e-02   1.231744e-02   4917248
  1.171175e+01   2.732083e+01   1.226039e-02   1.228448e-02   4950828
  1.175428e+01   2.729939e+01   1.229115e-02   1.220298e-02   5000170
  1.179682e+01   2.730219e+01   1.226743e-02   1.217521e-02   5026952
  1.183930e+01   2.733702e+01   1.225870e-02   1.213502e-02   5058752
  1.188178e+01   2.733046e+01   1.227096e-02   1.209300e-02   5100722
  1.192431e+01   2.735985e+01   1.227592e-02   1.206843e-02   5140124
  1.196682e+01   2.730510e+01   1.227175e-02   1.201662e-02   5174072
  1.200934e+01   2.734116e+01   1.227571e-02   1.196988e-02   5211608
  1.205185e+01   2.732723e+01   1.227167e-02   1.192146e-02   5247794
  1.209436e+01   2.737416e+01   1.226763e-02   1.191137e-02   5284196
  1.213689e+01   2.736879e+01   1.228663e-02   1.185085e-02   5328800
