# power spectrum of delta_N
# redshift z=1.892948
# k              Pk             sigma(k)       sigma(Pk)      count
  7.830312e-03   4.368554e-05   1.198114e-03   8.498559e-06   18
  1.686348e-02   1.193015e-03   2.897918e-03   1.289532e-04   152
  2.725284e-02   4.364548e-03   3.060867e-03   2.025160e-04   416
  3.742835e-02   8.827334e-03   2.912555e-03   3.403899e-04   770
  4.808679e-02   1.481411e-02   3.119650e-03   4.190110e-04   1364
  5.876109e-02   2.200977e-02   3.054550e-03   5.056963e-04   1976
  6.939824e-02   3.247764e-02   3.112555e-03   6.249969e-04   2792
  7.984642e-02   4.154177e-02   2.971805e-03   7.118660e-04   3578
  9.038229e-02   4.920157e-02   3.049521e-03   7.254721e-04   4724
  1.011318e-01   5.704506e-02   3.134595e-03   7.463368e-04   6032
  1.117485e-01   6.663771e-02   3.016599e-03   8.131661e-04   7072
  1.222702e-01   8.077834e-02   3.056387e-03   8.924139e-04   8634
  1.329722e-01   9.568443e-02   3.095256e-03   9.529003e-04   10336
  1.436677e-01   1.055338e-01   3.082009e-03   9.525437e-04   11940
  1.541872e-01   1.124591e-01   3.021465e-03   9.836358e-04   13490
  1.647185e-01   1.220515e-01   3.054444e-03   9.677954e-04   15656
  1.754149e-01   1.329560e-01   3.102608e-03   9.960225e-04   18008
  1.860920e-01   1.485910e-01   3.069464e-03   1.048892e-03   19964
  1.966957e-01   1.620245e-01   3.066093e-03   1.088868e-03   22354
  2.072851e-01   1.706966e-01   3.030819e-03   1.089797e-03   24648
  2.179134e-01   1.803071e-01   3.083109e-03   1.081692e-03   27592
  2.285517e-01   1.907534e-01   3.075318e-03   1.094072e-03   30152
  2.391687e-01   2.028944e-01   3.069056e-03   1.120077e-03   33046
  2.497808e-01   2.198159e-01   3.053846e-03   1.165170e-03   35992
  2.604233e-01   2.338895e-01   3.074764e-03   1.183719e-03   39304
  2.710722e-01   2.489262e-01   3.082145e-03   1.200069e-03   42608
  2.817050e-01   2.571266e-01   3.058267e-03   1.208221e-03   45758
  2.923349e-01   2.667745e-01   3.072286e-03   1.213336e-03   49536
  3.029238e-01   2.804109e-01   3.039208e-03   1.228975e-03   52488
  3.135134e-01   2.977413e-01   3.084628e-03   1.251714e-03   57034
  3.241511e-01   3.040567e-01   3.061146e-03   1.233751e-03   60648
  3.347969e-01   3.211584e-01   3.076329e-03   1.263069e-03   65044
  3.454223e-01   3.365680e-01   3.057760e-03   1.276481e-03   68720
  3.560505e-01   3.461772e-01   3.078281e-03   1.274860e-03   73538
  3.667175e-01   3.597673e-01   3.076939e-03   1.288787e-03   78080
  3.773260e-01   3.760663e-01   3.039859e-03   1.316819e-03   81572
  3.879192e-01   3.911068e-01   3.081238e-03   1.321868e-03   87248
  3.985882e-01   4.032286e-01   3.084591e-03   1.329296e-03   92266
  4.092322e-01   4.187321e-01   3.063169e-03   1.353147e-03   96696
  4.198039e-01   4.310957e-01   3.037602e-03   1.363148e-03   100904
  4.303789e-01   4.457713e-01   3.065517e-03   1.373907e-03   107036
  4.410480e-01   4.625206e-01   3.089487e-03   1.377602e-03   113362
  4.517307e-01   4.751924e-01   3.072092e-03   1.380810e-03   118176
  4.623378e-01   4.919781e-01   3.054661e-03   1.414376e-03   122944
  4.729644e-01   5.071977e-01   3.083007e-03   1.411257e-03   129902
  4.836049e-01   5.167680e-01   3.061727e-03   1.405610e-03   134944
  4.942158e-01   5.379765e-01   3.064979e-03   1.437693e-03   140952
  5.048213e-01   5.479489e-01   3.064662e-03   1.439011e-03   147072
  5.154342e-01   5.647462e-01   3.060800e-03   1.438736e-03   153382
  5.260893e-01   5.839243e-01   3.082622e-03   1.443188e-03   160952
  5.367508e-01   5.966157e-01   3.070294e-03   1.460687e-03   166640
  5.473579e-01   6.147609e-01   3.057153e-03   1.487311e-03   172448
  5.579787e-01   6.293944e-01   3.077577e-03   1.481224e-03   180594
  5.686178e-01   6.453789e-01   3.060710e-03   1.486215e-03   186556
  5.792219e-01   6.620178e-01   3.063394e-03   1.511334e-03   193528
  5.898242e-01   6.818137e-01   3.060684e-03   1.519908e-03   200626
  6.004609e-01   6.957908e-01   3.076604e-03   1.527999e-03   209256
  6.111150e-01   7.161854e-01   3.069663e-03   1.542201e-03   216020
  6.217510e-01   7.338400e-01   3.075746e-03   1.549441e-03   223768
  6.323610e-01   7.457003e-01   3.055783e-03   1.557433e-03   230234
  6.429887e-01   7.659241e-01   3.074922e-03   1.567745e-03   239800
  6.536248e-01   7.844210e-01   3.063054e-03   1.577394e-03   246568
  6.642393e-01   8.044756e-01   3.068328e-03   1.589664e-03   254828
  6.748534e-01   8.184685e-01   3.064424e-03   1.592722e-03   263074
  6.854951e-01   8.348316e-01   3.071509e-03   1.599743e-03   272312
  6.961385e-01   8.544944e-01   3.070197e-03   1.618815e-03   280376
  7.067732e-01   8.759095e-01   3.071500e-03   1.633335e-03   288884
  7.174012e-01   8.899235e-01   3.068501e-03   1.628212e-03   297602
  7.280177e-01   9.167671e-01   3.057614e-03   1.657925e-03   305520
  7.386402e-01   9.307300e-01   3.075198e-03   1.653545e-03   315976
  7.492461e-01   9.482967e-01   3.052723e-03   1.662616e-03   322778
  7.598720e-01   9.744532e-01   3.080021e-03   1.683871e-03   335372
  7.705286e-01   9.869876e-01   3.068318e-03   1.684734e-03   343464
  7.811635e-01   1.004846e+00   3.070705e-03   1.688464e-03   352912
  7.917934e-01   1.026895e+00   3.070498e-03   1.704963e-03   362666
  8.024224e-01   1.053031e+00   3.063690e-03   1.728041e-03   371884
  8.130465e-01   1.067489e+00   3.069929e-03   1.727116e-03   382280
  8.236583e-01   1.088593e+00   3.060755e-03   1.733660e-03   390888
  8.342648e-01   1.108244e+00   3.067168e-03   1.746213e-03   402234
  8.448912e-01   1.136376e+00   3.064832e-03   1.767179e-03   412576
  8.555263e-01   1.148066e+00   3.071788e-03   1.765791e-03   423732
  8.661590e-01   1.172644e+00   3.068142e-03   1.780163e-03   433624
  8.767950e-01   1.192565e+00   3.072203e-03   1.783857e-03   445154
  8.874347e-01   1.213802e+00   3.069139e-03   1.799495e-03   455584
  8.980596e-01   1.233710e+00   3.064716e-03   1.809458e-03   465588
  9.086714e-01   1.251260e+00   3.065163e-03   1.808258e-03   476762
  9.193048e-01   1.276972e+00   3.073106e-03   1.819114e-03   489552
  9.299472e-01   1.301831e+00   3.069632e-03   1.843059e-03   500328
  9.405628e-01   1.323532e+00   3.059261e-03   1.852008e-03   509852
  9.511854e-01   1.342163e+00   3.074339e-03   1.861319e-03   524234
  9.618189e-01   1.364499e+00   3.061952e-03   1.865369e-03   534104
  9.724448e-01   1.385913e+00   3.070528e-03   1.874864e-03   547048
  9.830800e-01   1.410196e+00   3.073862e-03   1.885062e-03   559328
  9.937180e-01   1.433442e+00   3.070866e-03   1.897200e-03   571326
  1.004339e+00   1.458242e+00   3.060367e-03   1.905534e-03   581920
  1.014951e+00   1.477629e+00   3.064588e-03   1.916618e-03   594832
  1.025571e+00   1.503207e+00   3.068054e-03   1.927767e-03   608048
  1.036206e+00   1.524137e+00   3.070252e-03   1.931921e-03   621526
  1.046839e+00   1.546549e+00   3.066112e-03   1.948160e-03   633240
  1.057456e+00   1.571722e+00   3.064953e-03   1.953279e-03   645472
  1.068086e+00   1.598345e+00   3.075342e-03   1.965586e-03   660906
  1.078726e+00   1.623568e+00   3.067576e-03   1.984809e-03   672856
  1.089356e+00   1.643564e+00   3.067094e-03   1.985233e-03   685980
  1.099980e+00   1.666577e+00   3.067978e-03   1.996473e-03   699256
  1.110619e+00   1.692128e+00   3.074976e-03   1.998403e-03   714730
  1.121246e+00   1.713712e+00   3.059348e-03   2.013379e-03   725152
  1.131863e+00   1.737515e+00   3.067634e-03   2.025254e-03   740420
  1.142485e+00   1.759820e+00   3.069089e-03   2.031013e-03   754312
  1.153114e+00   1.784971e+00   3.069897e-03   2.040059e-03   769114
  1.163749e+00   1.820195e+00   3.069209e-03   2.053854e-03   783488
  1.174365e+00   1.836628e+00   3.058900e-03   2.060127e-03   794968
  1.184981e+00   1.866577e+00   3.070107e-03   2.071304e-03   812366
  1.195609e+00   1.892280e+00   3.065134e-03   2.082823e-03   825976
  1.206250e+00   1.916871e+00   3.075220e-03   2.087147e-03   843352
  1.216898e+00   1.944373e+00   3.073224e-03   2.098659e-03   857280
  1.227524e+00   1.974477e+00   3.063189e-03   2.120293e-03   869542
  1.238147e+00   1.997376e+00   3.070752e-03   2.122727e-03   887128
  1.248772e+00   2.024273e+00   3.063166e-03   2.133109e-03   900032
  1.259388e+00   2.045047e+00   3.067377e-03   2.132484e-03   916560
  1.270005e+00   2.067897e+00   3.061783e-03   2.148872e-03   930922
  1.280635e+00   2.098823e+00   3.071795e-03   2.148105e-03   949844
  1.291287e+00   2.127678e+00   3.076939e-03   2.163962e-03   966736
  1.301925e+00   2.155020e+00   3.065819e-03   2.178681e-03   978776
  1.312537e+00   2.183882e+00   3.064137e-03   2.198972e-03   994522
  1.323161e+00   2.206729e+00   3.068907e-03   2.196024e-03   1012420
  1.333794e+00   2.234701e+00   3.071598e-03   2.203753e-03   1029408
  1.344410e+00   2.264375e+00   3.058405e-03   2.220314e-03   1041658
  1.355032e+00   2.290096e+00   3.072381e-03   2.223837e-03   1063520
  1.365659e+00   2.315977e+00   3.060689e-03   2.232864e-03   1075808
  1.376294e+00   2.348245e+00   3.080019e-03   2.244292e-03   1098956
  1.386928e+00   2.376181e+00   3.061670e-03   2.255737e-03   1109810
  1.397545e+00   2.408370e+00   3.065288e-03   2.266221e-03   1128608
  1.408178e+00   2.431949e+00   3.073589e-03   2.265078e-03   1148264
  1.418813e+00   2.457964e+00   3.067917e-03   2.279563e-03   1163252
  1.429436e+00   2.485275e+00   3.067070e-03   2.289332e-03   1181042
  1.440060e+00   2.517401e+00   3.064325e-03   2.295887e-03   1197848
  1.450692e+00   2.543928e+00   3.073737e-03   2.307323e-03   1218848
  1.461323e+00   2.571225e+00   3.064859e-03   2.317598e-03   1232916
  1.471945e+00   2.599287e+00   3.068844e-03   2.316434e-03   1253002
  1.482566e+00   2.624429e+00   3.062284e-03   2.328091e-03   1268576
  1.493191e+00   2.662414e+00   3.071552e-03   2.345207e-03   1290128
  1.503822e+00   2.686255e+00   3.068342e-03   2.353099e-03   1307402
  1.514455e+00   2.716512e+00   3.069122e-03   2.363384e-03   1327028
  1.525083e+00   2.744378e+00   3.064970e-03   2.365756e-03   1343648
  1.535711e+00   2.780613e+00   3.070217e-03   2.383151e-03   1364096
  1.546341e+00   2.808850e+00   3.068950e-03   2.386076e-03   1382730
  1.556974e+00   2.825987e+00   3.068757e-03   2.385398e-03   1402164
  1.567604e+00   2.862488e+00   3.068159e-03   2.404288e-03   1420464
  1.578221e+00   2.890429e+00   3.063798e-03   2.415196e-03   1437368
  1.588847e+00   2.928718e+00   3.072142e-03   2.420578e-03   1461530
  1.599480e+00   2.949334e+00   3.065069e-03   2.425914e-03   1478264
  1.610108e+00   2.984589e+00   3.068902e-03   2.432781e-03   1499356
  1.620732e+00   3.006261e+00   3.065238e-03   2.442805e-03   1517016
  1.631360e+00   3.045563e+00   3.070849e-03   2.455089e-03   1540090
  1.641988e+00   3.071363e+00   3.065366e-03   2.459969e-03   1557360
  1.652609e+00   3.097434e+00   3.066926e-03   2.464855e-03   1577780
  1.663242e+00   3.133487e+00   3.075107e-03   2.472370e-03   1602578
  1.673875e+00   3.163433e+00   3.063542e-03   2.481704e-03   1617672
  1.684498e+00   3.195649e+00   3.069033e-03   2.493820e-03   1641016
  1.695122e+00   3.222641e+00   3.065080e-03   2.503672e-03   1659416
  1.705746e+00   3.252499e+00   3.068431e-03   2.509348e-03   1682670
  1.716382e+00   3.283538e+00   3.070690e-03   2.509451e-03   1705256
  1.727024e+00   3.310726e+00   3.071890e-03   2.523614e-03   1726312
  1.737645e+00   3.342322e+00   3.062639e-03   2.538495e-03   1741880
  1.748261e+00   3.375445e+00   3.067156e-03   2.539928e-03   1766454
  1.758897e+00   3.407869e+00   3.073105e-03   2.541625e-03   1791784
  1.769528e+00   3.441931e+00   3.063894e-03   2.565063e-03   1807712
  1.780139e+00   3.467512e+00   3.062775e-03   2.566804e-03   1829002
  1.790759e+00   3.498232e+00   3.067263e-03   2.572794e-03   1854216
  1.801400e+00   3.534417e+00   3.074631e-03   2.580536e-03   1880156
  1.812037e+00   3.555576e+00   3.068349e-03   2.584926e-03   1897568
  1.822663e+00   3.592268e+00   3.068475e-03   2.593640e-03   1920458
  1.833288e+00   3.623805e+00   3.065997e-03   2.599239e-03   1942208
  1.843915e+00   3.661136e+00   3.067813e-03   2.615224e-03   1965612
  1.854544e+00   3.684167e+00   3.069639e-03   2.610593e-03   1989000
  1.865168e+00   3.712530e+00   3.064465e-03   2.615851e-03   2009114
  1.875791e+00   3.743047e+00   3.067400e-03   2.621280e-03   2034464
  1.886424e+00   3.778155e+00   3.070174e-03   2.632634e-03   2058476
  1.897052e+00   3.808265e+00   3.068039e-03   2.642987e-03   2079648
  1.907673e+00   3.841722e+00   3.065891e-03   2.655581e-03   2102578
  1.918306e+00   3.866586e+00   3.070742e-03   2.651892e-03   2129928
  1.928942e+00   3.903941e+00   3.069733e-03   2.665977e-03   2152096
  1.939563e+00   3.941089e+00   3.062858e-03   2.679394e-03   2171142
  1.950185e+00   3.976974e+00   3.069150e-03   2.679254e-03   2200248
  1.960824e+00   3.991414e+00   3.071017e-03   2.673191e-03   2225216
  1.971460e+00   4.028055e+00   3.070942e-03   2.686307e-03   2248448
  1.982084e+00   4.062905e+00   3.064272e-03   2.696379e-03   2267942
  1.992710e+00   4.097084e+00   3.071051e-03   2.703225e-03   2298072
  2.003337e+00   4.131092e+00   3.064068e-03   2.716866e-03   2317272
  2.013961e+00   4.158269e+00   3.069747e-03   2.714309e-03   2345808
  2.024580e+00   4.182319e+00   3.062469e-03   2.716835e-03   2365650
  2.035206e+00   4.219554e+00   3.069930e-03   2.728624e-03   2396940
  2.045842e+00   4.249951e+00   3.069936e-03   2.731463e-03   2421272
  2.056473e+00   4.287991e+00   3.068399e-03   2.746853e-03   2444576
  2.067102e+00   4.315201e+00   3.069748e-03   2.746726e-03   2471490
  2.077728e+00   4.346900e+00   3.064854e-03   2.754042e-03   2493180
  2.088349e+00   4.378404e+00   3.068019e-03   2.757091e-03   2520952
  2.098972e+00   4.403187e+00   3.065319e-03   2.761174e-03   2544946
  2.109598e+00   4.430296e+00   3.068311e-03   2.763527e-03   2573856
  2.120230e+00   4.469329e+00   3.069026e-03   2.775228e-03   2600016
  2.130862e+00   4.505776e+00   3.069102e-03   2.782212e-03   2625484
  2.141490e+00   4.533606e+00   3.068080e-03   2.785409e-03   2651122
  2.152130e+00   4.565377e+00   3.074348e-03   2.782302e-03   2683488
  2.162754e+00   4.600828e+00   3.059466e-03   2.803099e-03   2696352
  2.173371e+00   4.622518e+00   3.071171e-03   2.793464e-03   2733020
  2.184002e+00   4.656342e+00   3.067530e-03   2.805965e-03   2757378
  2.194631e+00   4.695070e+00   3.067942e-03   2.814294e-03   2784864
  2.205259e+00   4.721527e+00   3.067811e-03   2.816097e-03   2811168
  2.215874e+00   4.754524e+00   3.061061e-03   2.823275e-03   2832274
  2.226505e+00   4.790133e+00   3.075611e-03   2.826880e-03   2873636
  2.237142e+00   4.821780e+00   3.064877e-03   2.838615e-03   2890496
  2.247766e+00   4.850752e+00   3.069851e-03   2.838005e-03   2921800
  2.258399e+00   4.878370e+00   3.071101e-03   2.834253e-03   2951298
  2.269032e+00   4.914448e+00   3.066274e-03   2.851304e-03   2975476
  2.279663e+00   4.938759e+00   3.071375e-03   2.846284e-03   3007728
  2.290285e+00   4.976722e+00   3.061886e-03   2.857642e-03   3025776
  2.300910e+00   5.011160e+00   3.072955e-03   2.861493e-03   3065762
  2.311540e+00   5.033570e+00   3.063208e-03   2.866258e-03   3084856
  2.322162e+00   5.071736e+00   3.068985e-03   2.872709e-03   3118044
  2.332782e+00   5.098471e+00   3.064319e-03   2.876247e-03   3141352
  2.343410e+00   5.134899e+00   3.072036e-03   2.883136e-03   3179274
  2.354046e+00   5.152405e+00   3.067682e-03   2.878787e-03   3204120
  2.364668e+00   5.189416e+00   3.063610e-03   2.893855e-03   3227900
  2.375288e+00   5.228445e+00   3.068722e-03   2.891967e-03   3262394
  2.385925e+00   5.250591e+00   3.071814e-03   2.895346e-03   3295680
  2.396559e+00   5.279429e+00   3.067166e-03   2.896215e-03   3319560
  2.407184e+00   5.317037e+00   3.068070e-03   2.906529e-03   3348972
  2.417810e+00   5.345336e+00   3.068540e-03   2.908300e-03   3379722
  2.428441e+00   5.375775e+00   3.068348e-03   2.911849e-03   3410720
  2.439075e+00   5.407113e+00   3.069517e-03   2.914459e-03   3441504
  2.449697e+00   5.436292e+00   3.063301e-03   2.920866e-03   3463624
  2.460317e+00   5.464589e+00   3.068043e-03   2.923638e-03   3499790
  2.470951e+00   5.498234e+00   3.070702e-03   2.927873e-03   3533560
  2.481588e+00   5.528430e+00   3.069830e-03   2.929757e-03   3561920
  2.492209e+00   5.548861e+00   3.064208e-03   2.935017e-03   3585208
  2.502830e+00   5.587979e+00   3.069185e-03   2.936564e-03   3622518
  2.513468e+00   5.613334e+00   3.072344e-03   2.935378e-03   3657584
  2.524094e+00   5.646025e+00   3.062507e-03   2.950291e-03   3676440
  2.534707e+00   5.673252e+00   3.065232e-03   2.944447e-03   3711282
  2.545334e+00   5.708383e+00   3.068763e-03   2.948335e-03   3747696
  2.555965e+00   5.734421e+00   3.067225e-03   2.954865e-03   3776188
  2.566601e+00   5.763429e+00   3.074483e-03   2.950115e-03   3815304
  2.577232e+00   5.795086e+00   3.064660e-03   2.960681e-03   3835370
  2.587856e+00   5.822388e+00   3.068926e-03   2.957183e-03   3873424
  2.598487e+00   5.857391e+00   3.067978e-03   2.968075e-03   3903420
  2.609117e+00   5.884162e+00   3.070036e-03   2.963838e-03   3937624
  2.619745e+00   5.911697e+00   3.066011e-03   2.970452e-03   3965658
  2.630375e+00   5.938664e+00   3.069802e-03   2.966394e-03   4002984
  2.641001e+00   5.967231e+00   3.065136e-03   2.978867e-03   4027928
  2.651616e+00   5.990248e+00   3.064941e-03   2.974624e-03   4059844
  2.662241e+00   6.032551e+00   3.069945e-03   2.981458e-03   4100338
  2.672876e+00   6.057388e+00   3.069128e-03   2.978504e-03   4132264
  2.683506e+00   6.079451e+00   3.068474e-03   2.981542e-03   4163216
  2.694131e+00   6.110390e+00   3.066146e-03   2.985205e-03   4193350
  2.704761e+00   6.133709e+00   3.071068e-03   2.983841e-03   4234456
  2.715390e+00   6.164760e+00   3.064079e-03   2.989422e-03   4257264
  2.726012e+00   6.199205e+00   3.069774e-03   2.990657e-03   4297352
  2.736640e+00   6.218948e+00   3.067495e-03   2.992462e-03   4328642
  2.747272e+00   6.245723e+00   3.070663e-03   2.988570e-03   4367948
  2.757895e+00   6.272608e+00   3.061799e-03   2.993823e-03   4388384
  2.768519e+00   6.297845e+00   3.072247e-03   2.990979e-03   4436648
  2.779154e+00   6.334262e+00   3.067997e-03   2.998576e-03   4465658
  2.789787e+00   6.362286e+00   3.069677e-03   2.998766e-03   4502948
  2.800413e+00   6.378900e+00   3.064787e-03   2.996122e-03   4528880
  2.811033e+00   6.415221e+00   3.067181e-03   3.003601e-03   4566290
  2.821663e+00   6.436096e+00   3.070655e-03   2.999814e-03   4606856
  2.832293e+00   6.465293e+00   3.066552e-03   3.005765e-03   4635380
  2.842916e+00   6.495850e+00   3.067131e-03   3.007032e-03   4670384
  2.853543e+00   6.513549e+00   3.069161e-03   3.005082e-03   4709258
  2.864179e+00   6.547856e+00   3.070324e-03   3.005588e-03   4747352
  2.874805e+00   6.576360e+00   3.063655e-03   3.010858e-03   4771664
  2.885427e+00   6.595792e+00   3.068600e-03   3.009359e-03   4813532
  2.896058e+00   6.616195e+00   3.070437e-03   3.004893e-03   4852322
  2.906693e+00   6.650735e+00   3.069013e-03   3.007550e-03   4886480
  2.917320e+00   6.673016e+00   3.066289e-03   3.012715e-03   4917248
  2.927939e+00   6.693609e+00   3.065099e-03   3.009762e-03   4950828
  2.938569e+00   6.730425e+00   3.072788e-03   3.007634e-03   5000170
  2.949204e+00   6.747316e+00   3.066857e-03   3.010103e-03   5026952
  2.959825e+00   6.779132e+00   3.064676e-03   3.014222e-03   5058752
  2.970445e+00   6.800527e+00   3.067741e-03   3.012323e-03   5100722
  2.981076e+00   6.822781e+00   3.068979e-03   3.012225e-03   5140124
  2.991706e+00   6.843709e+00   3.067937e-03   3.008441e-03   5174072
  3.002335e+00   6.870859e+00   3.068928e-03   3.009466e-03   5211608
  3.012962e+00   6.896510e+00   3.067917e-03   3.011842e-03   5247794
  3.023589e+00   6.926672e+00   3.066908e-03   3.014651e-03   5284196
  3.034222e+00   6.946720e+00   3.071657e-03   3.010993e-03   5328800
