# power spectrum of delta
# redshift z=0.398845
# k              Pk             sigma(k)       sigma(Pk)      count
  7.830312e-03   1.498938e-04   1.198114e-03   2.922264e-05   18
  1.686348e-02   4.133529e-03   2.897918e-03   4.454783e-04   152
  2.725284e-02   1.519745e-02   3.060867e-03   7.059009e-04   416
  3.742835e-02   3.062581e-02   2.912555e-03   1.179073e-03   770
  4.808679e-02   5.110424e-02   3.119650e-03   1.451526e-03   1364
  5.876109e-02   7.637241e-02   3.054550e-03   1.748163e-03   1976
  6.939824e-02   1.120549e-01   3.112555e-03   2.157238e-03   2792
  7.984642e-02   1.440919e-01   2.971805e-03   2.429735e-03   3578
  9.038229e-02   1.700762e-01   3.049521e-03   2.501382e-03   4724
  1.011318e-01   2.000540e-01   3.134595e-03   2.592005e-03   6032
  1.117485e-01   2.321251e-01   3.016599e-03   2.858560e-03   7072
  1.222702e-01   2.844756e-01   3.056387e-03   3.143266e-03   8634
  1.329722e-01   3.351348e-01   3.095256e-03   3.377227e-03   10336
  1.436677e-01   3.752528e-01   3.082009e-03   3.387586e-03   11940
  1.541872e-01   4.067227e-01   3.021465e-03   3.561497e-03   13490
  1.647185e-01   4.530776e-01   3.054444e-03   3.584868e-03   15656
  1.754149e-01   4.943991e-01   3.102608e-03   3.660268e-03   18008
  1.860920e-01   5.518803e-01   3.069464e-03   3.909750e-03   19964
  1.966957e-01   6.064715e-01   3.066093e-03   4.080921e-03   22354
  2.072851e-01   6.435758e-01   3.030819e-03   4.071973e-03   24648
  2.179134e-01   6.923733e-01   3.083109e-03   4.108127e-03   27592
  2.285517e-01   7.565107e-01   3.075318e-03   4.395250e-03   30152
  2.391687e-01   8.068383e-01   3.069056e-03   4.515102e-03   33046
  2.497808e-01   8.717251e-01   3.053846e-03   4.603090e-03   35992
  2.604233e-01   9.418437e-01   3.074764e-03   4.771057e-03   39304
  2.710722e-01   9.984948e-01   3.082145e-03   4.820453e-03   42608
  2.817050e-01   1.064962e+00   3.058267e-03   4.973274e-03   45758
  2.923349e-01   1.119251e+00   3.072286e-03   5.038238e-03   49536
  3.029238e-01   1.186718e+00   3.039208e-03   5.191456e-03   52488
  3.135134e-01   1.275267e+00   3.084628e-03   5.320332e-03   57034
  3.241511e-01   1.318794e+00   3.061146e-03   5.316332e-03   60648
  3.347969e-01   1.419527e+00   3.076329e-03   5.581446e-03   65044
  3.454223e-01   1.496104e+00   3.057760e-03   5.668170e-03   68720
  3.560505e-01   1.565624e+00   3.078281e-03   5.754043e-03   73538
  3.667175e-01   1.644072e+00   3.076939e-03   5.867894e-03   78080
  3.773260e-01   1.739579e+00   3.039859e-03   6.089407e-03   81572
  3.879192e-01   1.820613e+00   3.081238e-03   6.235782e-03   87248
  3.985882e-01   1.899650e+00   3.084591e-03   6.253489e-03   92266
  4.092322e-01   1.995296e+00   3.063169e-03   6.414417e-03   96696
  4.198039e-01   2.077552e+00   3.037602e-03   6.598588e-03   100904
  4.303789e-01   2.180945e+00   3.065517e-03   6.644650e-03   107036
  4.410480e-01   2.266925e+00   3.089487e-03   6.723307e-03   113362
  4.517307e-01   2.379417e+00   3.072092e-03   6.913665e-03   118176
  4.623378e-01   2.473461e+00   3.054661e-03   7.058240e-03   122944
  4.729644e-01   2.573817e+00   3.083007e-03   7.193952e-03   129902
  4.836049e-01   2.690937e+00   3.061727e-03   7.285409e-03   134944
  4.942158e-01   2.783464e+00   3.064979e-03   7.423564e-03   140952
  5.048213e-01   2.907488e+00   3.064662e-03   7.586588e-03   147072
  5.154342e-01   3.012519e+00   3.060800e-03   7.715177e-03   153382
  5.260893e-01   3.134469e+00   3.082622e-03   7.786776e-03   160952
  5.367508e-01   3.227694e+00   3.070294e-03   7.947883e-03   166640
  5.473579e-01   3.354362e+00   3.057153e-03   8.077365e-03   172448
  5.579787e-01   3.466496e+00   3.077577e-03   8.246347e-03   180594
  5.686178e-01   3.613767e+00   3.060710e-03   8.373263e-03   186556
  5.792219e-01   3.716807e+00   3.063394e-03   8.475937e-03   193528
  5.898242e-01   3.858555e+00   3.060684e-03   8.614857e-03   200626
  6.004609e-01   3.965569e+00   3.076604e-03   8.679867e-03   209256
  6.111150e-01   4.102732e+00   3.069663e-03   8.869464e-03   216020
  6.217510e-01   4.258246e+00   3.075746e-03   9.014347e-03   223768
  6.323610e-01   4.400032e+00   3.055783e-03   9.157066e-03   230234
  6.429887e-01   4.545044e+00   3.074922e-03   9.265558e-03   239800
  6.536248e-01   4.663589e+00   3.063054e-03   9.362750e-03   246568
  6.642393e-01   4.847803e+00   3.068328e-03   9.604033e-03   254828
  6.748534e-01   4.947728e+00   3.064424e-03   9.640236e-03   263074
  6.854951e-01   5.110155e+00   3.071509e-03   9.770389e-03   272312
  6.961385e-01   5.284115e+00   3.070197e-03   9.980223e-03   280376
  7.067732e-01   5.423933e+00   3.071500e-03   1.006785e-02   288884
  7.174012e-01   5.580356e+00   3.068501e-03   1.018400e-02   297602
  7.280177e-01   5.731149e+00   3.057614e-03   1.035504e-02   305520
  7.386402e-01   5.899806e+00   3.075198e-03   1.050504e-02   315976
  7.492461e-01   6.052162e+00   3.052723e-03   1.065895e-02   322778
  7.598720e-01   6.237144e+00   3.080021e-03   1.076671e-02   335372
  7.705286e-01   6.371319e+00   3.068318e-03   1.087934e-02   343464
  7.811635e-01   6.539532e+00   3.070705e-03   1.100086e-02   352912
  7.917934e-01   6.743205e+00   3.070498e-03   1.116948e-02   362666
  8.024224e-01   6.879180e+00   3.063690e-03   1.130165e-02   371884
  8.130465e-01   7.071225e+00   3.069929e-03   1.143861e-02   382280
  8.236583e-01   7.265180e+00   3.060755e-03   1.167820e-02   390888
  8.342648e-01   7.460940e+00   3.067168e-03   1.181779e-02   402234
  8.448912e-01   7.619485e+00   3.064832e-03   1.184448e-02   412576
  8.555263e-01   7.793428e+00   3.071788e-03   1.197426e-02   423732
  8.661590e-01   7.986890e+00   3.068142e-03   1.211140e-02   433624
  8.767950e-01   8.198282e+00   3.072203e-03   1.229179e-02   445154
  8.874347e-01   8.357612e+00   3.069139e-03   1.239229e-02   455584
  8.980596e-01   8.548305e+00   3.064716e-03   1.248992e-02   465588
  9.086714e-01   8.725349e+00   3.065163e-03   1.262236e-02   476762
  9.193048e-01   8.943622e+00   3.073106e-03   1.277470e-02   489552
  9.299472e-01   9.111450e+00   3.069632e-03   1.290662e-02   500328
  9.405628e-01   9.302905e+00   3.059261e-03   1.305588e-02   509852
  9.511854e-01   9.525004e+00   3.074339e-03   1.316096e-02   524234
  9.618189e-01   9.742592e+00   3.061952e-03   1.331430e-02   534104
  9.724448e-01   9.946049e+00   3.070528e-03   1.343292e-02   547048
  9.830800e-01   1.011697e+01   3.073862e-03   1.352647e-02   559328
  9.937180e-01   1.030878e+01   3.070866e-03   1.359079e-02   571326
  1.004339e+00   1.049591e+01   3.060367e-03   1.375527e-02   581920
  1.014951e+00   1.076805e+01   3.064588e-03   1.397887e-02   594832
  1.025571e+00   1.091535e+01   3.068054e-03   1.400341e-02   608048
  1.036206e+00   1.119523e+01   3.070252e-03   1.416963e-02   621526
  1.046839e+00   1.136936e+01   3.066112e-03   1.430752e-02   633240
  1.057456e+00   1.159160e+01   3.064953e-03   1.446987e-02   645472
  1.068086e+00   1.183538e+01   3.075342e-03   1.456644e-02   660906
  1.078726e+00   1.203472e+01   3.067576e-03   1.463631e-02   672856
  1.089356e+00   1.220534e+01   3.067094e-03   1.475671e-02   685980
  1.099980e+00   1.246252e+01   3.067978e-03   1.490697e-02   699256
  1.110619e+00   1.262493e+01   3.074976e-03   1.491601e-02   714730
  1.121246e+00   1.289333e+01   3.059348e-03   1.514938e-02   725152
  1.131863e+00   1.310834e+01   3.067634e-03   1.521888e-02   740420
  1.142485e+00   1.331693e+01   3.069089e-03   1.532901e-02   754312
  1.153114e+00   1.356300e+01   3.069897e-03   1.544234e-02   769114
  1.163749e+00   1.373108e+01   3.069209e-03   1.552762e-02   783488
  1.174365e+00   1.398020e+01   3.058900e-03   1.568408e-02   794968
  1.184981e+00   1.420058e+01   3.070107e-03   1.575427e-02   812366
  1.195609e+00   1.439045e+01   3.065134e-03   1.584120e-02   825976
  1.206250e+00   1.466284e+01   3.075220e-03   1.601642e-02   843352
  1.216898e+00   1.487906e+01   3.073224e-03   1.606765e-02   857280
  1.227524e+00   1.510187e+01   3.063189e-03   1.618581e-02   869542
  1.238147e+00   1.529483e+01   3.070752e-03   1.624370e-02   887128
  1.248772e+00   1.557504e+01   3.063166e-03   1.641258e-02   900032
  1.259388e+00   1.581164e+01   3.067377e-03   1.649331e-02   916560
  1.270005e+00   1.603418e+01   3.061783e-03   1.664369e-02   930922
  1.280635e+00   1.622046e+01   3.071795e-03   1.661869e-02   949844
  1.291287e+00   1.649904e+01   3.076939e-03   1.679468e-02   966736
  1.301925e+00   1.668904e+01   3.065819e-03   1.686133e-02   978776
  1.312537e+00   1.690144e+01   3.064137e-03   1.694536e-02   994522
  1.323161e+00   1.716765e+01   3.068907e-03   1.708347e-02   1012420
  1.333794e+00   1.740004e+01   3.071598e-03   1.716256e-02   1029408
  1.344410e+00   1.763373e+01   3.058405e-03   1.722794e-02   1041658
  1.355032e+00   1.786054e+01   3.072381e-03   1.731000e-02   1063520
  1.365659e+00   1.806304e+01   3.060689e-03   1.741175e-02   1075808
  1.376294e+00   1.833178e+01   3.080019e-03   1.749368e-02   1098956
  1.386928e+00   1.857264e+01   3.061670e-03   1.766881e-02   1109810
  1.397545e+00   1.875685e+01   3.065288e-03   1.767321e-02   1128608
  1.408178e+00   1.903161e+01   3.073589e-03   1.778159e-02   1148264
  1.418813e+00   1.925823e+01   3.067917e-03   1.790481e-02   1163252
  1.429436e+00   1.946516e+01   3.067070e-03   1.788840e-02   1181042
  1.440060e+00   1.963712e+01   3.064325e-03   1.797216e-02   1197848
  1.450692e+00   1.996696e+01   3.073737e-03   1.805558e-02   1218848
  1.461323e+00   2.014838e+01   3.064859e-03   1.817897e-02   1232916
  1.471945e+00   2.037252e+01   3.068844e-03   1.822827e-02   1253002
  1.482566e+00   2.063041e+01   3.062284e-03   1.835653e-02   1268576
  1.493191e+00   2.086711e+01   3.071552e-03   1.833969e-02   1290128
  1.503822e+00   2.111530e+01   3.068342e-03   1.845758e-02   1307402
  1.514455e+00   2.125323e+01   3.069122e-03   1.843030e-02   1327028
  1.525083e+00   2.157497e+01   3.064970e-03   1.861349e-02   1343648
  1.535711e+00   2.175860e+01   3.070217e-03   1.860204e-02   1364096
  1.546341e+00   2.197949e+01   3.068950e-03   1.869846e-02   1382730
  1.556974e+00   2.223726e+01   3.068757e-03   1.879118e-02   1402164
  1.567604e+00   2.243715e+01   3.068159e-03   1.879163e-02   1420464
  1.578221e+00   2.267834e+01   3.063798e-03   1.891452e-02   1437368
  1.588847e+00   2.285588e+01   3.072142e-03   1.890583e-02   1461530
  1.599480e+00   2.308455e+01   3.065069e-03   1.892146e-02   1478264
  1.610108e+00   2.330209e+01   3.068902e-03   1.898211e-02   1499356
  1.620732e+00   2.350407e+01   3.065238e-03   1.910050e-02   1517016
  1.631360e+00   2.381383e+01   3.070849e-03   1.915902e-02   1540090
  1.641988e+00   2.399807e+01   3.065366e-03   1.926433e-02   1557360
  1.652609e+00   2.420149e+01   3.066926e-03   1.928017e-02   1577780
  1.663242e+00   2.443853e+01   3.075107e-03   1.930977e-02   1602578
  1.673875e+00   2.466396e+01   3.063542e-03   1.940512e-02   1617672
  1.684498e+00   2.485649e+01   3.069033e-03   1.943887e-02   1641016
  1.695122e+00   2.508639e+01   3.065080e-03   1.946424e-02   1659416
  1.705746e+00   2.531008e+01   3.068431e-03   1.949324e-02   1682670
  1.716382e+00   2.549654e+01   3.070690e-03   1.952096e-02   1705256
  1.727024e+00   2.566615e+01   3.071890e-03   1.953470e-02   1726312
  1.737645e+00   2.594437e+01   3.062639e-03   1.968136e-02   1741880
  1.748261e+00   2.613121e+01   3.067156e-03   1.966072e-02   1766454
  1.758897e+00   2.636486e+01   3.073105e-03   1.972062e-02   1791784
  1.769528e+00   2.654215e+01   3.063894e-03   1.974273e-02   1807712
  1.780139e+00   2.678298e+01   3.062775e-03   1.977650e-02   1829002
  1.790759e+00   2.695963e+01   3.067263e-03   1.979105e-02   1854216
  1.801400e+00   2.718113e+01   3.074631e-03   1.982121e-02   1880156
  1.812037e+00   2.742571e+01   3.068349e-03   1.994134e-02   1897568
  1.822663e+00   2.759268e+01   3.068475e-03   1.987269e-02   1920458
  1.833288e+00   2.781999e+01   3.065997e-03   1.994429e-02   1942208
  1.843915e+00   2.804237e+01   3.067813e-03   1.996136e-02   1965612
  1.854544e+00   2.820197e+01   3.069639e-03   2.001029e-02   1989000
  1.865168e+00   2.837449e+01   3.064465e-03   2.002893e-02   2009114
  1.875791e+00   2.857075e+01   3.067400e-03   2.002496e-02   2034464
  1.886424e+00   2.882820e+01   3.070174e-03   2.010998e-02   2058476
  1.897052e+00   2.897455e+01   3.068039e-03   2.008288e-02   2079648
  1.907673e+00   2.911876e+01   3.065891e-03   2.007443e-02   2102578
  1.918306e+00   2.936169e+01   3.070742e-03   2.012204e-02   2129928
  1.928942e+00   2.959983e+01   3.069733e-03   2.013965e-02   2152096
  1.939563e+00   2.978537e+01   3.062858e-03   2.023180e-02   2171142
  1.950185e+00   2.998075e+01   3.069150e-03   2.017318e-02   2200248
  1.960824e+00   3.014428e+01   3.071017e-03   2.019039e-02   2225216
  1.971460e+00   3.036696e+01   3.070942e-03   2.027998e-02   2248448
  1.982084e+00   3.049592e+01   3.064272e-03   2.023473e-02   2267942
  1.992710e+00   3.076457e+01   3.071051e-03   2.027858e-02   2298072
  2.003337e+00   3.083876e+01   3.064068e-03   2.027001e-02   2317272
  2.013961e+00   3.109425e+01   3.069747e-03   2.031307e-02   2345808
  2.024580e+00   3.128533e+01   3.062469e-03   2.034088e-02   2365650
  2.035206e+00   3.138863e+01   3.069930e-03   2.031166e-02   2396940
  2.045842e+00   3.159925e+01   3.069936e-03   2.031869e-02   2421272
  2.056473e+00   3.174184e+01   3.068399e-03   2.030584e-02   2444576
  2.067102e+00   3.194699e+01   3.069748e-03   2.031534e-02   2471490
  2.077728e+00   3.217994e+01   3.064854e-03   2.038065e-02   2493180
  2.088349e+00   3.230315e+01   3.068019e-03   2.034230e-02   2520952
  2.098972e+00   3.249896e+01   3.065319e-03   2.037954e-02   2544946
  2.109598e+00   3.263438e+01   3.068311e-03   2.033273e-02   2573856
  2.120230e+00   3.273895e+01   3.069026e-03   2.032186e-02   2600016
  2.130862e+00   3.295848e+01   3.069102e-03   2.037861e-02   2625484
  2.141490e+00   3.311184e+01   3.068080e-03   2.034969e-02   2651122
  2.152130e+00   3.330281e+01   3.074348e-03   2.033841e-02   2683488
  2.162754e+00   3.340394e+01   3.059466e-03   2.034502e-02   2696352
  2.173371e+00   3.359136e+01   3.071171e-03   2.028272e-02   2733020
  2.184002e+00   3.380452e+01   3.067530e-03   2.035258e-02   2757378
  2.194631e+00   3.397019e+01   3.067942e-03   2.033157e-02   2784864
  2.205259e+00   3.403795e+01   3.067811e-03   2.030961e-02   2811168
  2.215874e+00   3.422667e+01   3.061061e-03   2.031656e-02   2832274
  2.226505e+00   3.436991e+01   3.075611e-03   2.024545e-02   2873636
  2.237142e+00   3.447812e+01   3.064877e-03   2.028134e-02   2890496
  2.247766e+00   3.471086e+01   3.069851e-03   2.031602e-02   2921800
  2.258399e+00   3.486279e+01   3.071101e-03   2.031410e-02   2951298
  2.269032e+00   3.500953e+01   3.066274e-03   2.028163e-02   2975476
  2.279663e+00   3.509166e+01   3.071375e-03   2.023916e-02   3007728
  2.290285e+00   3.517576e+01   3.061886e-03   2.020527e-02   3025776
  2.300910e+00   3.541912e+01   3.072955e-03   2.019294e-02   3065762
  2.311540e+00   3.547961e+01   3.063208e-03   2.017266e-02   3084856
  2.322162e+00   3.565775e+01   3.068985e-03   2.020925e-02   3118044
  2.332782e+00   3.574026e+01   3.064319e-03   2.015785e-02   3141352
  2.343410e+00   3.586456e+01   3.072036e-03   2.012720e-02   3179274
  2.354046e+00   3.602533e+01   3.067682e-03   2.009325e-02   3204120
  2.364668e+00   3.615640e+01   3.063610e-03   2.011333e-02   3227900
  2.375288e+00   3.630559e+01   3.068722e-03   2.008575e-02   3262394
  2.385925e+00   3.645410e+01   3.071814e-03   2.009540e-02   3295680
  2.396559e+00   3.654934e+01   3.067166e-03   2.002941e-02   3319560
  2.407184e+00   3.666930e+01   3.068070e-03   2.006061e-02   3348972
  2.417810e+00   3.678418e+01   3.068540e-03   2.000254e-02   3379722
  2.428441e+00   3.688722e+01   3.068348e-03   1.998095e-02   3410720
  2.439075e+00   3.702924e+01   3.069517e-03   1.993031e-02   3441504
  2.449697e+00   3.712200e+01   3.063301e-03   1.994644e-02   3463624
  2.460317e+00   3.730116e+01   3.068043e-03   1.995731e-02   3499790
  2.470951e+00   3.739823e+01   3.070702e-03   1.990461e-02   3533560
  2.481588e+00   3.744804e+01   3.069830e-03   1.984995e-02   3561920
  2.492209e+00   3.757633e+01   3.064208e-03   1.984375e-02   3585208
  2.502830e+00   3.766061e+01   3.069185e-03   1.978244e-02   3622518
  2.513468e+00   3.779302e+01   3.072344e-03   1.975606e-02   3657584
  2.524094e+00   3.785334e+01   3.062507e-03   1.974145e-02   3676440
  2.534707e+00   3.804105e+01   3.065232e-03   1.975072e-02   3711282
  2.545334e+00   3.805764e+01   3.068763e-03   1.964401e-02   3747696
  2.555965e+00   3.816321e+01   3.067225e-03   1.964133e-02   3776188
  2.566601e+00   3.830978e+01   3.074483e-03   1.962687e-02   3815304
  2.577232e+00   3.837690e+01   3.064660e-03   1.961291e-02   3835370
  2.587856e+00   3.849013e+01   3.068926e-03   1.954601e-02   3873424
  2.598487e+00   3.855260e+01   3.067978e-03   1.949789e-02   3903420
  2.609117e+00   3.868632e+01   3.070036e-03   1.946874e-02   3937624
  2.619745e+00   3.872853e+01   3.066011e-03   1.945350e-02   3965658
  2.630375e+00   3.889283e+01   3.069802e-03   1.944937e-02   4002984
  2.641001e+00   3.894852e+01   3.065136e-03   1.940576e-02   4027928
  2.651616e+00   3.899742e+01   3.064941e-03   1.938023e-02   4059844
  2.662241e+00   3.910760e+01   3.069945e-03   1.931134e-02   4100338
  2.672876e+00   3.920880e+01   3.069128e-03   1.930887e-02   4132264
  2.683506e+00   3.930297e+01   3.068474e-03   1.927194e-02   4163216
  2.694131e+00   3.931910e+01   3.066146e-03   1.921198e-02   4193350
  2.704761e+00   3.940826e+01   3.071068e-03   1.913161e-02   4234456
  2.715390e+00   3.950394e+01   3.064079e-03   1.915892e-02   4257264
  2.726012e+00   3.952468e+01   3.069774e-03   1.908142e-02   4297352
  2.736640e+00   3.964987e+01   3.067495e-03   1.906559e-02   4328642
  2.747272e+00   3.970307e+01   3.070663e-03   1.894960e-02   4367948
  2.757895e+00   3.977512e+01   3.061799e-03   1.896890e-02   4388384
  2.768519e+00   3.984457e+01   3.072247e-03   1.892054e-02   4436648
  2.779154e+00   3.994604e+01   3.067997e-03   1.889128e-02   4465658
  2.789787e+00   4.001031e+01   3.069677e-03   1.884717e-02   4502948
  2.800413e+00   3.999573e+01   3.064787e-03   1.877932e-02   4528880
  2.811033e+00   4.018156e+01   3.067181e-03   1.880163e-02   4566290
  2.821663e+00   4.021009e+01   3.070655e-03   1.873121e-02   4606856
  2.832293e+00   4.025180e+01   3.066552e-03   1.870166e-02   4635380
  2.842916e+00   4.034723e+01   3.067131e-03   1.866462e-02   4670384
  2.853543e+00   4.035829e+01   3.069161e-03   1.859731e-02   4709258
  2.864179e+00   4.041299e+01   3.070324e-03   1.853484e-02   4747352
  2.874805e+00   4.047086e+01   3.063655e-03   1.852122e-02   4771664
  2.885427e+00   4.054174e+01   3.068600e-03   1.848936e-02   4813532
  2.896058e+00   4.056638e+01   3.070437e-03   1.841590e-02   4852322
  2.906693e+00   4.064270e+01   3.069013e-03   1.837400e-02   4886480
  2.917320e+00   4.072601e+01   3.066289e-03   1.836288e-02   4917248
  2.927939e+00   4.066110e+01   3.065099e-03   1.827279e-02   4950828
  2.938569e+00   4.079404e+01   3.072788e-03   1.825350e-02   5000170
  2.949204e+00   4.080833e+01   3.066857e-03   1.822322e-02   5026952
  2.959825e+00   4.085052e+01   3.064676e-03   1.815674e-02   5058752
  2.970445e+00   4.087775e+01   3.067741e-03   1.810360e-02   5100722
  2.981076e+00   4.095464e+01   3.068979e-03   1.807025e-02   5140124
  2.991706e+00   4.095538e+01   3.067937e-03   1.799423e-02   5174072
  3.002335e+00   4.102206e+01   3.068928e-03   1.798883e-02   5211608
  3.012962e+00   4.106617e+01   3.067917e-03   1.793583e-02   5247794
  3.023589e+00   4.109696e+01   3.066908e-03   1.788874e-02   5284196
  3.034222e+00   4.111616e+01   3.071657e-03   1.782507e-02   5328800
