# power spectrum of delta
# redshift z=9.982066
# k              Pk             sigma(k)       sigma(Pk)      count
  7.830312e-03   3.176693e-06   1.198114e-03   6.171221e-07   18
  1.686348e-02   8.615242e-05   2.897918e-03   9.332571e-06   152
  2.725284e-02   3.135420e-04   3.060867e-03   1.453548e-05   416
  3.742835e-02   6.352228e-04   2.912555e-03   2.452829e-05   770
  4.808679e-02   1.071079e-03   3.119650e-03   3.018533e-05   1364
  5.876109e-02   1.584203e-03   3.054550e-03   3.643739e-05   1976
  6.939824e-02   2.345561e-03   3.112555e-03   4.515486e-05   2792
  7.984642e-02   2.986378e-03   2.971805e-03   5.188069e-05   3578
  9.038229e-02   3.551329e-03   3.049521e-03   5.260947e-05   4724
  1.011318e-01   4.090933e-03   3.134595e-03   5.345064e-05   6032
  1.117485e-01   4.800079e-03   3.016599e-03   5.789835e-05   7072
  1.222702e-01   5.759651e-03   3.056387e-03   6.350240e-05   8634
  1.329722e-01   6.855752e-03   3.095256e-03   6.786893e-05   10336
  1.436677e-01   7.516210e-03   3.082009e-03   6.778512e-05   11940
  1.541872e-01   7.918790e-03   3.021465e-03   6.891925e-05   13490
  1.647185e-01   8.466472e-03   3.054444e-03   6.680099e-05   15656
  1.754149e-01   9.222021e-03   3.102608e-03   6.953273e-05   18008
  1.860920e-01   1.031973e-02   3.069464e-03   7.327577e-05   19964
  1.966957e-01   1.123224e-02   3.066093e-03   7.513380e-05   22354
  2.072851e-01   1.179430e-02   3.030819e-03   7.565582e-05   24648
  2.179134e-01   1.230214e-02   3.083109e-03   7.413657e-05   27592
  2.285517e-01   1.280066e-02   3.075318e-03   7.287708e-05   30152
  2.391687e-01   1.353542e-02   3.069056e-03   7.435509e-05   33046
  2.497808e-01   1.463297e-02   3.053846e-03   7.807342e-05   35992
  2.604233e-01   1.549297e-02   3.074764e-03   7.817425e-05   39304
  2.710722e-01   1.644514e-02   3.082145e-03   7.918247e-05   42608
  2.817050e-01   1.657578e-02   3.058267e-03   7.834528e-05   45758
  2.923349e-01   1.716954e-02   3.072286e-03   7.750074e-05   49536
  3.029238e-01   1.792680e-02   3.039208e-03   7.926657e-05   52488
  3.135134e-01   1.870214e-02   3.084628e-03   7.897116e-05   57034
  3.241511e-01   1.915320e-02   3.061146e-03   7.765834e-05   60648
  3.347969e-01   2.008438e-02   3.076329e-03   7.935002e-05   65044
  3.454223e-01   2.086260e-02   3.057760e-03   7.939379e-05   68720
  3.560505e-01   2.131797e-02   3.078281e-03   7.850676e-05   73538
  3.667175e-01   2.181835e-02   3.076939e-03   7.797784e-05   78080
  3.773260e-01   2.268454e-02   3.039859e-03   7.936689e-05   81572
  3.879192e-01   2.319338e-02   3.081238e-03   7.882560e-05   87248
  3.985882e-01   2.380291e-02   3.084591e-03   7.841181e-05   92266
  4.092322e-01   2.449850e-02   3.063169e-03   7.876072e-05   96696
  4.198039e-01   2.502620e-02   3.037602e-03   7.921876e-05   100904
  4.303789e-01   2.552185e-02   3.065517e-03   7.893001e-05   107036
  4.410480e-01   2.611996e-02   3.089487e-03   7.755506e-05   113362
  4.517307e-01   2.672896e-02   3.072092e-03   7.789616e-05   118176
  4.623378e-01   2.761908e-02   3.054661e-03   7.906012e-05   122944
  4.729644e-01   2.816744e-02   3.083007e-03   7.805127e-05   129902
  4.836049e-01   2.849018e-02   3.061727e-03   7.773652e-05   134944
  4.942158e-01   2.916299e-02   3.064979e-03   7.764412e-05   140952
  5.048213e-01   2.961563e-02   3.064662e-03   7.778937e-05   147072
  5.154342e-01   3.022751e-02   3.060800e-03   7.711228e-05   153382
  5.260893e-01   3.064081e-02   3.082622e-03   7.663924e-05   160952
  5.367508e-01   3.119793e-02   3.070294e-03   7.648672e-05   166640
  5.473579e-01   3.176915e-02   3.057153e-03   7.677546e-05   172448
  5.579787e-01   3.232627e-02   3.077577e-03   7.576114e-05   180594
  5.686178e-01   3.304564e-02   3.060710e-03   7.658647e-05   186556
  5.792219e-01   3.343118e-02   3.063394e-03   7.624096e-05   193528
  5.898242e-01   3.406009e-02   3.060684e-03   7.642571e-05   200626
  6.004609e-01   3.435226e-02   3.076604e-03   7.572259e-05   209256
  6.111150e-01   3.499660e-02   3.069663e-03   7.541264e-05   216020
  6.217510e-01   3.570074e-02   3.075746e-03   7.578240e-05   223768
  6.323610e-01   3.613828e-02   3.055783e-03   7.564246e-05   230234
  6.429887e-01   3.654401e-02   3.074922e-03   7.465058e-05   239800
  6.536248e-01   3.674382e-02   3.063054e-03   7.429773e-05   246568
  6.642393e-01   3.765470e-02   3.068328e-03   7.489816e-05   254828
  6.748534e-01   3.788842e-02   3.064424e-03   7.375568e-05   263074
  6.854951e-01   3.859637e-02   3.071509e-03   7.397340e-05   272312
  6.961385e-01   3.902486e-02   3.070197e-03   7.371156e-05   280376
  7.067732e-01   3.942589e-02   3.071500e-03   7.342851e-05   288884
  7.174012e-01   3.984178e-02   3.068501e-03   7.327076e-05   297602
  7.280177e-01   4.018264e-02   3.057614e-03   7.279080e-05   305520
  7.386402e-01   4.066832e-02   3.075198e-03   7.265606e-05   315976
  7.492461e-01   4.104755e-02   3.052723e-03   7.269500e-05   322778
  7.598720e-01   4.189778e-02   3.080021e-03   7.250466e-05   335372
  7.705286e-01   4.200779e-02   3.068318e-03   7.199687e-05   343464
  7.811635e-01   4.256533e-02   3.070705e-03   7.146790e-05   352912
  7.917934e-01   4.295599e-02   3.070498e-03   7.128867e-05   362666
  8.024224e-01   4.355134e-02   3.063690e-03   7.153578e-05   371884
  8.130465e-01   4.398696e-02   3.069929e-03   7.133621e-05   382280
  8.236583e-01   4.442313e-02   3.060755e-03   7.098066e-05   390888
  8.342648e-01   4.460234e-02   3.067168e-03   7.004863e-05   402234
  8.448912e-01   4.498093e-02   3.064832e-03   6.978057e-05   412576
  8.555263e-01   4.544098e-02   3.071788e-03   6.965409e-05   423732
  8.661590e-01   4.593917e-02   3.068142e-03   6.960891e-05   433624
  8.767950e-01   4.615775e-02   3.072203e-03   6.910032e-05   445154
  8.874347e-01   4.665144e-02   3.069139e-03   6.921275e-05   455584
  8.980596e-01   4.699721e-02   3.064716e-03   6.892005e-05   465588
  9.086714e-01   4.740813e-02   3.065163e-03   6.863084e-05   476762
  9.193048e-01   4.777159e-02   3.073106e-03   6.825475e-05   489552
  9.299472e-01   4.830507e-02   3.069632e-03   6.850852e-05   500328
  9.405628e-01   4.866806e-02   3.059261e-03   6.802900e-05   509852
  9.511854e-01   4.894524e-02   3.074339e-03   6.767212e-05   524234
  9.618189e-01   4.952322e-02   3.061952e-03   6.774825e-05   534104
  9.724448e-01   4.977064e-02   3.070528e-03   6.738458e-05   547048
  9.830800e-01   5.021177e-02   3.073862e-03   6.712951e-05   559328
  9.937180e-01   5.062609e-02   3.070866e-03   6.712196e-05   571326
  1.004339e+00   5.098261e-02   3.060367e-03   6.692664e-05   581920
  1.014951e+00   5.126761e-02   3.064588e-03   6.652261e-05   594832
  1.025571e+00   5.150496e-02   3.068054e-03   6.597267e-05   608048
  1.036206e+00   5.186832e-02   3.070252e-03   6.600695e-05   621526
  1.046839e+00   5.227250e-02   3.066112e-03   6.585869e-05   633240
  1.057456e+00   5.256954e-02   3.064953e-03   6.561575e-05   645472
  1.068086e+00   5.314743e-02   3.075342e-03   6.550790e-05   660906
  1.078726e+00   5.328377e-02   3.067576e-03   6.512273e-05   672856
  1.089356e+00   5.356713e-02   3.067094e-03   6.493114e-05   685980
  1.099980e+00   5.406594e-02   3.067978e-03   6.447150e-05   699256
  1.110619e+00   5.425709e-02   3.074976e-03   6.435435e-05   714730
  1.121246e+00   5.468636e-02   3.059348e-03   6.406127e-05   725152
  1.131863e+00   5.490563e-02   3.067634e-03   6.404755e-05   740420
  1.142485e+00   5.531449e-02   3.069089e-03   6.375691e-05   754312
  1.153114e+00   5.563879e-02   3.069897e-03   6.337997e-05   769114
  1.163749e+00   5.604840e-02   3.069209e-03   6.321855e-05   783488
  1.174365e+00   5.630719e-02   3.058900e-03   6.325283e-05   794968
  1.184981e+00   5.670514e-02   3.070107e-03   6.300063e-05   812366
  1.195609e+00   5.685283e-02   3.065134e-03   6.242670e-05   825976
  1.206250e+00   5.731106e-02   3.075220e-03   6.237478e-05   843352
  1.216898e+00   5.752548e-02   3.073224e-03   6.205062e-05   857280
  1.227524e+00   5.774112e-02   3.063189e-03   6.192309e-05   869542
  1.238147e+00   5.817227e-02   3.070752e-03   6.191333e-05   887128
  1.248772e+00   5.820273e-02   3.063166e-03   6.146944e-05   900032
  1.259388e+00   5.862072e-02   3.067377e-03   6.129625e-05   916560
  1.270005e+00   5.893800e-02   3.061783e-03   6.128869e-05   930922
  1.280635e+00   5.919000e-02   3.071795e-03   6.073966e-05   949844
  1.291287e+00   5.933846e-02   3.076939e-03   6.039761e-05   966736
  1.301925e+00   5.982332e-02   3.065819e-03   6.050000e-05   978776
  1.312537e+00   6.006960e-02   3.064137e-03   6.029232e-05   994522
  1.323161e+00   6.030269e-02   3.068907e-03   6.010293e-05   1012420
  1.333794e+00   6.059983e-02   3.071598e-03   5.981132e-05   1029408
  1.344410e+00   6.075900e-02   3.058405e-03   5.968081e-05   1041658
  1.355032e+00   6.118950e-02   3.072381e-03   5.949839e-05   1063520
  1.365659e+00   6.149970e-02   3.060689e-03   5.947126e-05   1075808
  1.376294e+00   6.172508e-02   3.080019e-03   5.909610e-05   1098956
  1.386928e+00   6.184737e-02   3.061670e-03   5.879852e-05   1109810
  1.397545e+00   6.216766e-02   3.065288e-03   5.850114e-05   1128608
  1.408178e+00   6.239441e-02   3.073589e-03   5.834157e-05   1148264
  1.418813e+00   6.269035e-02   3.067917e-03   5.820514e-05   1163252
  1.429436e+00   6.286414e-02   3.067070e-03   5.795523e-05   1181042
  1.440060e+00   6.309600e-02   3.064325e-03   5.781613e-05   1197848
  1.450692e+00   6.337173e-02   3.073737e-03   5.742921e-05   1218848
  1.461323e+00   6.360934e-02   3.064859e-03   5.731890e-05   1232916
  1.471945e+00   6.393882e-02   3.068844e-03   5.733178e-05   1253002
  1.482566e+00   6.416867e-02   3.062284e-03   5.712075e-05   1268576
  1.493191e+00   6.430229e-02   3.071552e-03   5.663718e-05   1290128
  1.503822e+00   6.456422e-02   3.068342e-03   5.659357e-05   1307402
  1.514455e+00   6.467050e-02   3.069122e-03   5.614669e-05   1327028
  1.525083e+00   6.495341e-02   3.064970e-03   5.612799e-05   1343648
  1.535711e+00   6.508913e-02   3.070217e-03   5.587578e-05   1364096
  1.546341e+00   6.532978e-02   3.068950e-03   5.573727e-05   1382730
  1.556974e+00   6.560884e-02   3.068757e-03   5.555635e-05   1402164
  1.567604e+00   6.572262e-02   3.068159e-03   5.529759e-05   1420464
  1.578221e+00   6.616528e-02   3.063798e-03   5.529247e-05   1437368
  1.588847e+00   6.625356e-02   3.072142e-03   5.487486e-05   1461530
  1.599480e+00   6.643449e-02   3.065069e-03   5.470105e-05   1478264
  1.610108e+00   6.670936e-02   3.068902e-03   5.465556e-05   1499356
  1.620732e+00   6.694615e-02   3.065238e-03   5.443248e-05   1517016
  1.631360e+00   6.722221e-02   3.070849e-03   5.435594e-05   1540090
  1.641988e+00   6.730008e-02   3.065366e-03   5.402555e-05   1557360
  1.652609e+00   6.761342e-02   3.066926e-03   5.391444e-05   1577780
  1.663242e+00   6.778965e-02   3.075107e-03   5.365565e-05   1602578
  1.673875e+00   6.796276e-02   3.063542e-03   5.353635e-05   1617672
  1.684498e+00   6.810799e-02   3.069033e-03   5.335914e-05   1641016
  1.695122e+00   6.822435e-02   3.065080e-03   5.313343e-05   1659416
  1.705746e+00   6.844353e-02   3.068431e-03   5.296703e-05   1682670
  1.716382e+00   6.856576e-02   3.070690e-03   5.259328e-05   1705256
  1.727024e+00   6.872352e-02   3.071890e-03   5.245064e-05   1726312
  1.737645e+00   6.893770e-02   3.062639e-03   5.236609e-05   1741880
  1.748261e+00   6.931052e-02   3.067156e-03   5.220434e-05   1766454
  1.758897e+00   6.943671e-02   3.073105e-03   5.203927e-05   1791784
  1.769528e+00   6.947206e-02   3.063894e-03   5.182475e-05   1807712
  1.780139e+00   6.962635e-02   3.062775e-03   5.160096e-05   1829002
  1.790759e+00   6.980122e-02   3.067263e-03   5.133412e-05   1854216
  1.801400e+00   7.006533e-02   3.074631e-03   5.119980e-05   1880156
  1.812037e+00   7.010822e-02   3.068349e-03   5.105108e-05   1897568
  1.822663e+00   7.030585e-02   3.068475e-03   5.091142e-05   1920458
  1.833288e+00   7.035882e-02   3.065997e-03   5.062005e-05   1942208
  1.843915e+00   7.066814e-02   3.067813e-03   5.061212e-05   1965612
  1.854544e+00   7.086033e-02   3.069639e-03   5.050675e-05   1989000
  1.865168e+00   7.099621e-02   3.064465e-03   5.025856e-05   2009114
  1.875791e+00   7.113346e-02   3.067400e-03   5.008632e-05   2034464
  1.886424e+00   7.118320e-02   3.070174e-03   4.983641e-05   2058476
  1.897052e+00   7.136731e-02   3.068039e-03   4.957155e-05   2079648
  1.907673e+00   7.148558e-02   3.065891e-03   4.951448e-05   2102578
  1.918306e+00   7.151995e-02   3.070742e-03   4.911457e-05   2129928
  1.928942e+00   7.171468e-02   3.069733e-03   4.900358e-05   2152096
  1.939563e+00   7.193135e-02   3.062858e-03   4.900148e-05   2171142
  1.950185e+00   7.201876e-02   3.069150e-03   4.882731e-05   2200248
  1.960824e+00   7.209171e-02   3.071017e-03   4.850841e-05   2225216
  1.971460e+00   7.222184e-02   3.070942e-03   4.841381e-05   2248448
  1.982084e+00   7.239520e-02   3.064272e-03   4.832582e-05   2267942
  1.992710e+00   7.260867e-02   3.071051e-03   4.814654e-05   2298072
  2.003337e+00   7.263396e-02   3.064068e-03   4.796383e-05   2317272
  2.013961e+00   7.291312e-02   3.069747e-03   4.784898e-05   2345808
  2.024580e+00   7.297745e-02   3.062469e-03   4.768559e-05   2365650
  2.035206e+00   7.299064e-02   3.069930e-03   4.745959e-05   2396940
  2.045842e+00   7.304733e-02   3.069936e-03   4.724165e-05   2421272
  2.056473e+00   7.329036e-02   3.068399e-03   4.716320e-05   2444576
  2.067102e+00   7.325848e-02   3.069748e-03   4.684228e-05   2471490
  2.077728e+00   7.348456e-02   3.064854e-03   4.681062e-05   2493180
  2.088349e+00   7.367936e-02   3.068019e-03   4.662015e-05   2520952
  2.098972e+00   7.362399e-02   3.065319e-03   4.645066e-05   2544946
  2.109598e+00   7.389817e-02   3.068311e-03   4.637176e-05   2573856
  2.120230e+00   7.398604e-02   3.069026e-03   4.612414e-05   2600016
  2.130862e+00   7.402729e-02   3.069102e-03   4.592336e-05   2625484
  2.141490e+00   7.416803e-02   3.068080e-03   4.583247e-05   2651122
  2.152130e+00   7.419370e-02   3.074348e-03   4.559831e-05   2683488
  2.162754e+00   7.425176e-02   3.059466e-03   4.552977e-05   2696352
  2.173371e+00   7.437527e-02   3.071171e-03   4.530115e-05   2733020
  2.184002e+00   7.448618e-02   3.067530e-03   4.515096e-05   2757378
  2.194631e+00   7.461744e-02   3.067942e-03   4.504561e-05   2784864
  2.205259e+00   7.469489e-02   3.067811e-03   4.481697e-05   2811168
  2.215874e+00   7.475312e-02   3.061061e-03   4.471788e-05   2832274
  2.226505e+00   7.488899e-02   3.075611e-03   4.458318e-05   2873636
  2.237142e+00   7.496237e-02   3.064877e-03   4.450496e-05   2890496
  2.247766e+00   7.502010e-02   3.069851e-03   4.422080e-05   2921800
  2.258399e+00   7.513450e-02   3.071101e-03   4.407316e-05   2951298
  2.269032e+00   7.503461e-02   3.066274e-03   4.385866e-05   2975476
  2.279663e+00   7.529752e-02   3.071375e-03   4.384980e-05   3007728
  2.290285e+00   7.532713e-02   3.061886e-03   4.371099e-05   3025776
  2.300910e+00   7.539106e-02   3.072955e-03   4.347698e-05   3065762
  2.311540e+00   7.552311e-02   3.063208e-03   4.339977e-05   3084856
  2.322162e+00   7.557085e-02   3.068985e-03   4.321064e-05   3118044
  2.332782e+00   7.564837e-02   3.064319e-03   4.308973e-05   3141352
  2.343410e+00   7.558858e-02   3.072036e-03   4.282468e-05   3179274
  2.354046e+00   7.575925e-02   3.067682e-03   4.271879e-05   3204120
  2.364668e+00   7.588705e-02   3.063610e-03   4.269043e-05   3227900
  2.375288e+00   7.585884e-02   3.068722e-03   4.242811e-05   3262394
  2.385925e+00   7.591119e-02   3.071814e-03   4.222862e-05   3295680
  2.396559e+00   7.601259e-02   3.067166e-03   4.217985e-05   3319560
  2.407184e+00   7.610535e-02   3.068070e-03   4.200412e-05   3348972
  2.417810e+00   7.621381e-02   3.068540e-03   4.195368e-05   3379722
  2.428441e+00   7.615222e-02   3.068348e-03   4.169345e-05   3410720
  2.439075e+00   7.626698e-02   3.069517e-03   4.159532e-05   3441504
  2.449697e+00   7.637047e-02   3.063301e-03   4.152383e-05   3463624
  2.460317e+00   7.632349e-02   3.068043e-03   4.134109e-05   3499790
  2.470951e+00   7.639534e-02   3.070702e-03   4.115750e-05   3533560
  2.481588e+00   7.641292e-02   3.069830e-03   4.097471e-05   3561920
  2.492209e+00   7.648018e-02   3.064208e-03   4.096544e-05   3585208
  2.502830e+00   7.654437e-02   3.069185e-03   4.074607e-05   3622518
  2.513468e+00   7.653390e-02   3.072344e-03   4.055577e-05   3657584
  2.524094e+00   7.661965e-02   3.062507e-03   4.050750e-05   3676440
  2.534707e+00   7.664279e-02   3.065232e-03   4.031832e-05   3711282
  2.545334e+00   7.663691e-02   3.068763e-03   4.014049e-05   3747696
  2.555965e+00   7.672964e-02   3.067225e-03   4.005454e-05   3776188
  2.566601e+00   7.673455e-02   3.074483e-03   3.985832e-05   3815304
  2.577232e+00   7.685394e-02   3.064660e-03   3.982080e-05   3835370
  2.587856e+00   7.686628e-02   3.068926e-03   3.960121e-05   3873424
  2.598487e+00   7.694690e-02   3.067978e-03   3.952545e-05   3903420
  2.609117e+00   7.693663e-02   3.070036e-03   3.938257e-05   3937624
  2.619745e+00   7.696249e-02   3.066011e-03   3.930396e-05   3965658
  2.630375e+00   7.706689e-02   3.069802e-03   3.911470e-05   4002984
  2.641001e+00   7.712805e-02   3.065136e-03   3.907382e-05   4027928
  2.651616e+00   7.709308e-02   3.064941e-03   3.892489e-05   4059844
  2.662241e+00   7.699390e-02   3.069945e-03   3.868350e-05   4100338
  2.672876e+00   7.702531e-02   3.069128e-03   3.855219e-05   4132264
  2.683506e+00   7.711829e-02   3.068474e-03   3.841234e-05   4163216
  2.694131e+00   7.712735e-02   3.066146e-03   3.836333e-05   4193350
  2.704761e+00   7.711150e-02   3.071068e-03   3.814419e-05   4234456
  2.715390e+00   7.701516e-02   3.064079e-03   3.800515e-05   4257264
  2.726012e+00   7.715278e-02   3.069774e-03   3.789635e-05   4297352
  2.736640e+00   7.719775e-02   3.067495e-03   3.783650e-05   4328642
  2.747272e+00   7.713068e-02   3.070663e-03   3.764277e-05   4367948
  2.757895e+00   7.718146e-02   3.061799e-03   3.757079e-05   4388384
  2.768519e+00   7.719424e-02   3.072247e-03   3.738173e-05   4436648
  2.779154e+00   7.720424e-02   3.067997e-03   3.724160e-05   4465658
  2.789787e+00   7.724250e-02   3.069677e-03   3.716423e-05   4502948
  2.800413e+00   7.715359e-02   3.064787e-03   3.697463e-05   4528880
  2.811033e+00   7.719297e-02   3.067181e-03   3.692957e-05   4566290
  2.821663e+00   7.731827e-02   3.070655e-03   3.679545e-05   4606856
  2.832293e+00   7.728369e-02   3.066552e-03   3.667921e-05   4635380
  2.842916e+00   7.727337e-02   3.067131e-03   3.652300e-05   4670384
  2.853543e+00   7.717566e-02   3.069161e-03   3.636479e-05   4709258
  2.864179e+00   7.726661e-02   3.070324e-03   3.630442e-05   4747352
  2.874805e+00   7.721397e-02   3.063655e-03   3.618886e-05   4771664
  2.885427e+00   7.721920e-02   3.068600e-03   3.609323e-05   4813532
  2.896058e+00   7.713790e-02   3.070437e-03   3.582762e-05   4852322
  2.906693e+00   7.725653e-02   3.069013e-03   3.582812e-05   4886480
  2.917320e+00   7.712174e-02   3.066289e-03   3.562543e-05   4917248
  2.927939e+00   7.718761e-02   3.065099e-03   3.560430e-05   4950828
  2.938569e+00   7.715185e-02   3.072788e-03   3.543262e-05   5000170
  2.949204e+00   7.713886e-02   3.066857e-03   3.534797e-05   5026952
  2.959825e+00   7.712475e-02   3.064676e-03   3.521146e-05   5058752
  2.970445e+00   7.707579e-02   3.067741e-03   3.508584e-05   5100722
  2.981076e+00   7.721137e-02   3.068979e-03   3.500125e-05   5140124
  2.991706e+00   7.714533e-02   3.067937e-03   3.483233e-05   5174072
  3.002335e+00   7.710227e-02   3.068928e-03   3.473206e-05   5211608
  3.012962e+00   7.705921e-02   3.067917e-03   3.462912e-05   5247794
  3.023589e+00   7.700455e-02   3.066908e-03   3.452186e-05   5284196
  3.034222e+00   7.698036e-02   3.071657e-03   3.436133e-05   5328800
