# power spectrum of delta
# redshift z=0.596562
# k              Pk             sigma(k)       sigma(Pk)      count
  7.830312e-03   1.228986e-04   1.198114e-03   2.395988e-05   18
  1.686348e-02   3.391434e-03   2.897918e-03   3.657723e-04   152
  2.725284e-02   1.246321e-02   3.060867e-03   5.787852e-04   416
  3.742835e-02   2.514083e-02   2.912555e-03   9.682275e-04   770
  4.808679e-02   4.200315e-02   3.119650e-03   1.192065e-03   1364
  5.876109e-02   6.269528e-02   3.054550e-03   1.436472e-03   1976
  6.939824e-02   9.210459e-02   3.112555e-03   1.772956e-03   2792
  7.984642e-02   1.183108e-01   2.971805e-03   2.001277e-03   3578
  9.038229e-02   1.397324e-01   3.049521e-03   2.055667e-03   4724
  1.011318e-01   1.638019e-01   3.134595e-03   2.128160e-03   6032
  1.117485e-01   1.903358e-01   3.016599e-03   2.340897e-03   7072
  1.222702e-01   2.327951e-01   3.056387e-03   2.572113e-03   8634
  1.329722e-01   2.744824e-01   3.095256e-03   2.759797e-03   10336
  1.436677e-01   3.062560e-01   3.082009e-03   2.764535e-03   11940
  1.541872e-01   3.308366e-01   3.021465e-03   2.898650e-03   13490
  1.647185e-01   3.665086e-01   3.054444e-03   2.902785e-03   15656
  1.754149e-01   3.996014e-01   3.102608e-03   2.965110e-03   18008
  1.860920e-01   4.463590e-01   3.069464e-03   3.156617e-03   19964
  1.966957e-01   4.893747e-01   3.066093e-03   3.295994e-03   22354
  2.072851e-01   5.183080e-01   3.030819e-03   3.284567e-03   24648
  2.179134e-01   5.556920e-01   3.083109e-03   3.303575e-03   27592
  2.285517e-01   6.033672e-01   3.075318e-03   3.501673e-03   30152
  2.391687e-01   6.430224e-01   3.069056e-03   3.597247e-03   33046
  2.497808e-01   6.948745e-01   3.053846e-03   3.669997e-03   35992
  2.604233e-01   7.485465e-01   3.074764e-03   3.799764e-03   39304
  2.710722e-01   7.946890e-01   3.082145e-03   3.835278e-03   42608
  2.817050e-01   8.426822e-01   3.058267e-03   3.938251e-03   45758
  2.923349e-01   8.826163e-01   3.072286e-03   3.986206e-03   49536
  3.029238e-01   9.354988e-01   3.039208e-03   4.082791e-03   52488
  3.135134e-01   1.003324e+00   3.084628e-03   4.190086e-03   57034
  3.241511e-01   1.034021e+00   3.061146e-03   4.174861e-03   60648
  3.347969e-01   1.109700e+00   3.076329e-03   4.360334e-03   65044
  3.454223e-01   1.167349e+00   3.057760e-03   4.419724e-03   68720
  3.560505e-01   1.216694e+00   3.078281e-03   4.473763e-03   73538
  3.667175e-01   1.274866e+00   3.076939e-03   4.554258e-03   78080
  3.773260e-01   1.346538e+00   3.039859e-03   4.718082e-03   81572
  3.879192e-01   1.408803e+00   3.081238e-03   4.819603e-03   87248
  3.985882e-01   1.466578e+00   3.084591e-03   4.820779e-03   92266
  4.092322e-01   1.537299e+00   3.063169e-03   4.952939e-03   96696
  4.198039e-01   1.593658e+00   3.037602e-03   5.067689e-03   100904
  4.303789e-01   1.672994e+00   3.065517e-03   5.094666e-03   107036
  4.410480e-01   1.739654e+00   3.089487e-03   5.159361e-03   113362
  4.517307e-01   1.815198e+00   3.072092e-03   5.258611e-03   118176
  4.623378e-01   1.886470e+00   3.054661e-03   5.391534e-03   122944
  4.729644e-01   1.961443e+00   3.083007e-03   5.492708e-03   129902
  4.836049e-01   2.041913e+00   3.061727e-03   5.532122e-03   134944
  4.942158e-01   2.116401e+00   3.064979e-03   5.649737e-03   140952
  5.048213e-01   2.198985e+00   3.064662e-03   5.751008e-03   147072
  5.154342e-01   2.276328e+00   3.060800e-03   5.825884e-03   153382
  5.260893e-01   2.363648e+00   3.082622e-03   5.871879e-03   160952
  5.367508e-01   2.425586e+00   3.070294e-03   5.969324e-03   166640
  5.473579e-01   2.531497e+00   3.057153e-03   6.091153e-03   172448
  5.579787e-01   2.606309e+00   3.077577e-03   6.209744e-03   180594
  5.686178e-01   2.710808e+00   3.060710e-03   6.281809e-03   186556
  5.792219e-01   2.785329e+00   3.063394e-03   6.341976e-03   193528
  5.898242e-01   2.885886e+00   3.060684e-03   6.426597e-03   200626
  6.004609e-01   2.965241e+00   3.076604e-03   6.488029e-03   209256
  6.111150e-01   3.063386e+00   3.069663e-03   6.617573e-03   216020
  6.217510e-01   3.181314e+00   3.075746e-03   6.723161e-03   223768
  6.323610e-01   3.275683e+00   3.055783e-03   6.820909e-03   230234
  6.429887e-01   3.384299e+00   3.074922e-03   6.890238e-03   239800
  6.536248e-01   3.467206e+00   3.063054e-03   6.969157e-03   246568
  6.642393e-01   3.598197e+00   3.068328e-03   7.128640e-03   254828
  6.748534e-01   3.668474e+00   3.064424e-03   7.147158e-03   263074
  6.854951e-01   3.786613e+00   3.071509e-03   7.246616e-03   272312
  6.961385e-01   3.907105e+00   3.070197e-03   7.361229e-03   280376
  7.067732e-01   4.014508e+00   3.071500e-03   7.456419e-03   288884
  7.174012e-01   4.117788e+00   3.068501e-03   7.516803e-03   297602
  7.280177e-01   4.238827e+00   3.057614e-03   7.638267e-03   305520
  7.386402e-01   4.353173e+00   3.075198e-03   7.749512e-03   315976
  7.492461e-01   4.455727e+00   3.052723e-03   7.843845e-03   322778
  7.598720e-01   4.589308e+00   3.080021e-03   7.921594e-03   335372
  7.705286e-01   4.690496e+00   3.068318e-03   8.012710e-03   343464
  7.811635e-01   4.809872e+00   3.070705e-03   8.108835e-03   352912
  7.917934e-01   4.949850e+00   3.070498e-03   8.213366e-03   362666
  8.024224e-01   5.040688e+00   3.063690e-03   8.285986e-03   371884
  8.130465e-01   5.191931e+00   3.069929e-03   8.398470e-03   382280
  8.236583e-01   5.326627e+00   3.060755e-03   8.541504e-03   390888
  8.342648e-01   5.467115e+00   3.067168e-03   8.626659e-03   402234
  8.448912e-01   5.579471e+00   3.064832e-03   8.684817e-03   412576
  8.555263e-01   5.697331e+00   3.071788e-03   8.767429e-03   423732
  8.661590e-01   5.833116e+00   3.068142e-03   8.849240e-03   433624
  8.767950e-01   5.979464e+00   3.072203e-03   8.970177e-03   445154
  8.874347e-01   6.111593e+00   3.069139e-03   9.063351e-03   455584
  8.980596e-01   6.230257e+00   3.064716e-03   9.114989e-03   465588
  9.086714e-01   6.361760e+00   3.065163e-03   9.203331e-03   476762
  9.193048e-01   6.523704e+00   3.073106e-03   9.314772e-03   489552
  9.299472e-01   6.644010e+00   3.069632e-03   9.387388e-03   500328
  9.405628e-01   6.785085e+00   3.059261e-03   9.524957e-03   509852
  9.511854e-01   6.941726e+00   3.074339e-03   9.597972e-03   524234
  9.618189e-01   7.087219e+00   3.061952e-03   9.682086e-03   534104
  9.724448e-01   7.237108e+00   3.070528e-03   9.787614e-03   547048
  9.830800e-01   7.367828e+00   3.073862e-03   9.840639e-03   559328
  9.937180e-01   7.512386e+00   3.070866e-03   9.948678e-03   571326
  1.004339e+00   7.636750e+00   3.060367e-03   1.003100e-02   581920
  1.014951e+00   7.830373e+00   3.064588e-03   1.016480e-02   594832
  1.025571e+00   7.924879e+00   3.068054e-03   1.017513e-02   608048
  1.036206e+00   8.148065e+00   3.070252e-03   1.032792e-02   621526
  1.046839e+00   8.278584e+00   3.066112e-03   1.042887e-02   633240
  1.057456e+00   8.433029e+00   3.064953e-03   1.052366e-02   645472
  1.068086e+00   8.586205e+00   3.075342e-03   1.055853e-02   660906
  1.078726e+00   8.725376e+00   3.067576e-03   1.064612e-02   672856
  1.089356e+00   8.872777e+00   3.067094e-03   1.074043e-02   685980
  1.099980e+00   9.038362e+00   3.067978e-03   1.081503e-02   699256
  1.110619e+00   9.169514e+00   3.074976e-03   1.085468e-02   714730
  1.121246e+00   9.354198e+00   3.059348e-03   1.099269e-02   725152
  1.131863e+00   9.513809e+00   3.067634e-03   1.103523e-02   740420
  1.142485e+00   9.673742e+00   3.069089e-03   1.114811e-02   754312
  1.153114e+00   9.844908e+00   3.069897e-03   1.121505e-02   769114
  1.163749e+00   9.975970e+00   3.069209e-03   1.123795e-02   783488
  1.174365e+00   1.015641e+01   3.058900e-03   1.140481e-02   794968
  1.184981e+00   1.030529e+01   3.070107e-03   1.142067e-02   812366
  1.195609e+00   1.045213e+01   3.065134e-03   1.149835e-02   825976
  1.206250e+00   1.063860e+01   3.075220e-03   1.160897e-02   843352
  1.216898e+00   1.080559e+01   3.073224e-03   1.165993e-02   857280
  1.227524e+00   1.098271e+01   3.063189e-03   1.177368e-02   869542
  1.238147e+00   1.111962e+01   3.070752e-03   1.181805e-02   887128
  1.248772e+00   1.134125e+01   3.063166e-03   1.195938e-02   900032
  1.259388e+00   1.146703e+01   3.067377e-03   1.198552e-02   916560
  1.270005e+00   1.165202e+01   3.061783e-03   1.205895e-02   930922
  1.280635e+00   1.179191e+01   3.071795e-03   1.208778e-02   949844
  1.291287e+00   1.198080e+01   3.076939e-03   1.219628e-02   966736
  1.301925e+00   1.215521e+01   3.065819e-03   1.229933e-02   978776
  1.312537e+00   1.231850e+01   3.064137e-03   1.237808e-02   994522
  1.323161e+00   1.246893e+01   3.068907e-03   1.239605e-02   1012420
  1.333794e+00   1.264802e+01   3.071598e-03   1.246549e-02   1029408
  1.344410e+00   1.284647e+01   3.058405e-03   1.256653e-02   1041658
  1.355032e+00   1.299167e+01   3.072381e-03   1.259400e-02   1063520
  1.365659e+00   1.317800e+01   3.060689e-03   1.270535e-02   1075808
  1.376294e+00   1.336002e+01   3.080019e-03   1.275567e-02   1098956
  1.386928e+00   1.353426e+01   3.061670e-03   1.284043e-02   1109810
  1.397545e+00   1.367772e+01   3.065288e-03   1.286182e-02   1128608
  1.408178e+00   1.386699e+01   3.073589e-03   1.295711e-02   1148264
  1.418813e+00   1.402785e+01   3.067917e-03   1.303391e-02   1163252
  1.429436e+00   1.421777e+01   3.067070e-03   1.305597e-02   1181042
  1.440060e+00   1.435364e+01   3.064325e-03   1.313122e-02   1197848
  1.450692e+00   1.457963e+01   3.073737e-03   1.317540e-02   1218848
  1.461323e+00   1.472056e+01   3.064859e-03   1.327956e-02   1232916
  1.471945e+00   1.490331e+01   3.068844e-03   1.332650e-02   1253002
  1.482566e+00   1.506499e+01   3.062284e-03   1.337487e-02   1268576
  1.493191e+00   1.524323e+01   3.071552e-03   1.341281e-02   1290128
  1.503822e+00   1.541758e+01   3.068342e-03   1.347674e-02   1307402
  1.514455e+00   1.556588e+01   3.069122e-03   1.352387e-02   1327028
  1.525083e+00   1.577897e+01   3.064970e-03   1.363681e-02   1343648
  1.535711e+00   1.591588e+01   3.070217e-03   1.362177e-02   1364096
  1.546341e+00   1.611935e+01   3.068950e-03   1.369570e-02   1382730
  1.556974e+00   1.629528e+01   3.068757e-03   1.379490e-02   1402164
  1.567604e+00   1.645692e+01   3.068159e-03   1.383559e-02   1420464
  1.578221e+00   1.662571e+01   3.063798e-03   1.387187e-02   1437368
  1.588847e+00   1.677682e+01   3.072142e-03   1.389669e-02   1461530
  1.599480e+00   1.696588e+01   3.065069e-03   1.393705e-02   1478264
  1.610108e+00   1.711051e+01   3.068902e-03   1.395246e-02   1499356
  1.620732e+00   1.729102e+01   3.065238e-03   1.405355e-02   1517016
  1.631360e+00   1.751644e+01   3.070849e-03   1.410106e-02   1540090
  1.641988e+00   1.762302e+01   3.065366e-03   1.410593e-02   1557360
  1.652609e+00   1.782630e+01   3.066926e-03   1.419918e-02   1577780
  1.663242e+00   1.798049e+01   3.075107e-03   1.421565e-02   1602578
  1.673875e+00   1.813833e+01   3.063542e-03   1.426613e-02   1617672
  1.684498e+00   1.831320e+01   3.069033e-03   1.429241e-02   1641016
  1.695122e+00   1.847702e+01   3.065080e-03   1.433738e-02   1659416
  1.705746e+00   1.862152e+01   3.068431e-03   1.434243e-02   1682670
  1.716382e+00   1.882828e+01   3.070690e-03   1.441057e-02   1705256
  1.727024e+00   1.897300e+01   3.071890e-03   1.445419e-02   1726312
  1.737645e+00   1.917913e+01   3.062639e-03   1.452942e-02   1741880
  1.748261e+00   1.928986e+01   3.067156e-03   1.449966e-02   1766454
  1.758897e+00   1.944720e+01   3.073105e-03   1.454788e-02   1791784
  1.769528e+00   1.963214e+01   3.063894e-03   1.461017e-02   1807712
  1.780139e+00   1.979965e+01   3.062775e-03   1.464162e-02   1829002
  1.790759e+00   1.998050e+01   3.067263e-03   1.464765e-02   1854216
  1.801400e+00   2.011930e+01   3.074631e-03   1.466736e-02   1880156
  1.812037e+00   2.032117e+01   3.068349e-03   1.474185e-02   1897568
  1.822663e+00   2.048978e+01   3.068475e-03   1.475503e-02   1920458
  1.833288e+00   2.065748e+01   3.065997e-03   1.483285e-02   1942208
  1.843915e+00   2.078818e+01   3.067813e-03   1.482393e-02   1965612
  1.854544e+00   2.092593e+01   3.069639e-03   1.485433e-02   1989000
  1.865168e+00   2.109416e+01   3.064465e-03   1.487951e-02   2009114
  1.875791e+00   2.126667e+01   3.067400e-03   1.493007e-02   2034464
  1.886424e+00   2.140508e+01   3.070174e-03   1.493607e-02   2058476
  1.897052e+00   2.154380e+01   3.068039e-03   1.494611e-02   2079648
  1.907673e+00   2.169437e+01   3.065891e-03   1.495626e-02   2102578
  1.918306e+00   2.187921e+01   3.070742e-03   1.500472e-02   2129928
  1.928942e+00   2.201574e+01   3.069733e-03   1.498912e-02   2152096
  1.939563e+00   2.220190e+01   3.062858e-03   1.506982e-02   2171142
  1.950185e+00   2.233393e+01   3.069150e-03   1.505409e-02   2200248
  1.960824e+00   2.246947e+01   3.071017e-03   1.507243e-02   2225216
  1.971460e+00   2.263588e+01   3.070942e-03   1.510556e-02   2248448
  1.982084e+00   2.277848e+01   3.064272e-03   1.509512e-02   2267942
  1.992710e+00   2.294720e+01   3.071051e-03   1.512619e-02   2298072
  2.003337e+00   2.306261e+01   3.064068e-03   1.514796e-02   2317272
  2.013961e+00   2.323274e+01   3.069747e-03   1.516477e-02   2345808
  2.024580e+00   2.340846e+01   3.062469e-03   1.521860e-02   2365650
  2.035206e+00   2.348317e+01   3.069930e-03   1.516875e-02   2396940
  2.045842e+00   2.367344e+01   3.069936e-03   1.520032e-02   2421272
  2.056473e+00   2.377749e+01   3.068399e-03   1.520726e-02   2444576
  2.067102e+00   2.393045e+01   3.069748e-03   1.521862e-02   2471490
  2.077728e+00   2.407982e+01   3.064854e-03   1.525658e-02   2493180
  2.088349e+00   2.421367e+01   3.068019e-03   1.523707e-02   2520952
  2.098972e+00   2.431858e+01   3.065319e-03   1.524988e-02   2544946
  2.109598e+00   2.450237e+01   3.068311e-03   1.525510e-02   2573856
  2.120230e+00   2.462436e+01   3.069026e-03   1.529775e-02   2600016
  2.130862e+00   2.476791e+01   3.069102e-03   1.530453e-02   2625484
  2.141490e+00   2.487230e+01   3.068080e-03   1.527920e-02   2651122
  2.152130e+00   2.505082e+01   3.074348e-03   1.528523e-02   2683488
  2.162754e+00   2.517625e+01   3.059466e-03   1.533644e-02   2696352
  2.173371e+00   2.528004e+01   3.071171e-03   1.529802e-02   2733020
  2.184002e+00   2.539205e+01   3.067530e-03   1.529676e-02   2757378
  2.194631e+00   2.558035e+01   3.067942e-03   1.534167e-02   2784864
  2.205259e+00   2.569790e+01   3.067811e-03   1.533608e-02   2811168
  2.215874e+00   2.582453e+01   3.061061e-03   1.533997e-02   2832274
  2.226505e+00   2.594141e+01   3.075611e-03   1.530306e-02   2873636
  2.237142e+00   2.607075e+01   3.064877e-03   1.531628e-02   2890496
  2.247766e+00   2.615655e+01   3.069851e-03   1.531609e-02   2921800
  2.258399e+00   2.630455e+01   3.071101e-03   1.530884e-02   2951298
  2.269032e+00   2.641821e+01   3.066274e-03   1.530669e-02   2975476
  2.279663e+00   2.652774e+01   3.071375e-03   1.529254e-02   3007728
  2.290285e+00   2.665283e+01   3.061886e-03   1.531497e-02   3025776
  2.300910e+00   2.679833e+01   3.072955e-03   1.530629e-02   3065762
  2.311540e+00   2.688134e+01   3.063208e-03   1.531535e-02   3084856
  2.322162e+00   2.698709e+01   3.068985e-03   1.528832e-02   3118044
  2.332782e+00   2.712422e+01   3.064319e-03   1.531653e-02   3141352
  2.343410e+00   2.726606e+01   3.072036e-03   1.530337e-02   3179274
  2.354046e+00   2.737854e+01   3.067682e-03   1.529300e-02   3204120
  2.364668e+00   2.745888e+01   3.063610e-03   1.527098e-02   3227900
  2.375288e+00   2.756291e+01   3.068722e-03   1.528550e-02   3262394
  2.385925e+00   2.767881e+01   3.071814e-03   1.525075e-02   3295680
  2.396559e+00   2.780213e+01   3.067166e-03   1.525889e-02   3319560
  2.407184e+00   2.787460e+01   3.068070e-03   1.525755e-02   3348972
  2.417810e+00   2.799900e+01   3.068540e-03   1.522920e-02   3379722
  2.428441e+00   2.811569e+01   3.068348e-03   1.522335e-02   3410720
  2.439075e+00   2.817987e+01   3.069517e-03   1.519916e-02   3441504
  2.449697e+00   2.828881e+01   3.063301e-03   1.522160e-02   3463624
  2.460317e+00   2.838935e+01   3.068043e-03   1.516282e-02   3499790
  2.470951e+00   2.849911e+01   3.070702e-03   1.516185e-02   3533560
  2.481588e+00   2.860404e+01   3.069830e-03   1.516127e-02   3561920
  2.492209e+00   2.870351e+01   3.064208e-03   1.516610e-02   3585208
  2.502830e+00   2.878934e+01   3.069185e-03   1.513487e-02   3622518
  2.513468e+00   2.884568e+01   3.072344e-03   1.507008e-02   3657584
  2.524094e+00   2.895233e+01   3.062507e-03   1.510092e-02   3676440
  2.534707e+00   2.907913e+01   3.065232e-03   1.508909e-02   3711282
  2.545334e+00   2.916285e+01   3.068763e-03   1.506820e-02   3747696
  2.555965e+00   2.923995e+01   3.067225e-03   1.504114e-02   3776188
  2.566601e+00   2.931417e+01   3.074483e-03   1.499197e-02   3815304
  2.577232e+00   2.939856e+01   3.064660e-03   1.502043e-02   3835370
  2.587856e+00   2.950340e+01   3.068926e-03   1.497911e-02   3873424
  2.598487e+00   2.954802e+01   3.067978e-03   1.495608e-02   3903420
  2.609117e+00   2.965792e+01   3.070036e-03   1.495083e-02   3937624
  2.619745e+00   2.969645e+01   3.066011e-03   1.491438e-02   3965658
  2.630375e+00   2.984912e+01   3.069802e-03   1.493311e-02   4002984
  2.641001e+00   2.991144e+01   3.065136e-03   1.490790e-02   4027928
  2.651616e+00   2.995585e+01   3.064941e-03   1.487740e-02   4059844
  2.662241e+00   3.005862e+01   3.069945e-03   1.484332e-02   4100338
  2.672876e+00   3.013770e+01   3.069128e-03   1.481083e-02   4132264
  2.683506e+00   3.022573e+01   3.068474e-03   1.480875e-02   4163216
  2.694131e+00   3.024470e+01   3.066146e-03   1.477141e-02   4193350
  2.704761e+00   3.034134e+01   3.071068e-03   1.472800e-02   4234456
  2.715390e+00   3.040819e+01   3.064079e-03   1.474181e-02   4257264
  2.726012e+00   3.044625e+01   3.069774e-03   1.469803e-02   4297352
  2.736640e+00   3.052700e+01   3.067495e-03   1.467853e-02   4328642
  2.747272e+00   3.061799e+01   3.070663e-03   1.464649e-02   4367948
  2.757895e+00   3.066555e+01   3.061799e-03   1.465060e-02   4388384
  2.768519e+00   3.075499e+01   3.072247e-03   1.459235e-02   4436648
  2.779154e+00   3.081883e+01   3.067997e-03   1.457475e-02   4465658
  2.789787e+00   3.085584e+01   3.069677e-03   1.455827e-02   4502948
  2.800413e+00   3.092882e+01   3.064787e-03   1.454722e-02   4528880
  2.811033e+00   3.102165e+01   3.067181e-03   1.451707e-02   4566290
  2.821663e+00   3.108324e+01   3.070655e-03   1.447137e-02   4606856
  2.832293e+00   3.115686e+01   3.066552e-03   1.448092e-02   4635380
  2.842916e+00   3.118825e+01   3.067131e-03   1.443236e-02   4670384
  2.853543e+00   3.124201e+01   3.069161e-03   1.439125e-02   4709258
  2.864179e+00   3.127770e+01   3.070324e-03   1.437131e-02   4747352
  2.874805e+00   3.136086e+01   3.063655e-03   1.436071e-02   4771664
  2.885427e+00   3.139710e+01   3.068600e-03   1.431485e-02   4813532
  2.896058e+00   3.140275e+01   3.070437e-03   1.426614e-02   4852322
  2.906693e+00   3.150986e+01   3.069013e-03   1.427579e-02   4886480
  2.917320e+00   3.154704e+01   3.066289e-03   1.421128e-02   4917248
  2.927939e+00   3.156555e+01   3.065099e-03   1.421025e-02   4950828
  2.938569e+00   3.164840e+01   3.072788e-03   1.414121e-02   5000170
  2.949204e+00   3.164405e+01   3.066857e-03   1.411518e-02   5026952
  2.959825e+00   3.170443e+01   3.064676e-03   1.409653e-02   5058752
  2.970445e+00   3.176972e+01   3.067741e-03   1.406360e-02   5100722
  2.981076e+00   3.181311e+01   3.068979e-03   1.402971e-02   5140124
  2.991706e+00   3.186373e+01   3.067937e-03   1.400357e-02   5174072
  3.002335e+00   3.188326e+01   3.068928e-03   1.396582e-02   5211608
  3.012962e+00   3.190598e+01   3.067917e-03   1.392771e-02   5247794
  3.023589e+00   3.194444e+01   3.066908e-03   1.389276e-02   5284196
  3.034222e+00   3.198206e+01   3.071657e-03   1.385787e-02   5328800
