# power spectrum of delta_N
# redshift z=2.885851
# k              Pk             sigma(k)       sigma(Pk)      count
  7.830312e-03   2.488187e-05   1.198114e-03   4.835800e-06   18
  1.686348e-02   6.759527e-04   2.897918e-03   7.311172e-05   152
  2.725284e-02   2.467762e-03   3.060867e-03   1.144680e-04   416
  3.742835e-02   4.993918e-03   2.912555e-03   1.926552e-04   770
  4.808679e-02   8.393791e-03   3.119650e-03   2.371183e-04   1364
  5.876109e-02   1.245085e-02   3.054550e-03   2.862395e-04   1976
  6.939824e-02   1.839598e-02   3.112555e-03   3.540204e-04   2792
  7.984642e-02   2.349283e-02   2.971805e-03   4.044813e-04   3578
  9.038229e-02   2.785789e-02   3.049521e-03   4.113045e-04   4724
  1.011318e-01   3.220523e-02   3.134595e-03   4.216059e-04   6032
  1.117485e-01   3.768174e-02   3.016599e-03   4.580996e-04   7072
  1.222702e-01   4.551931e-02   3.056387e-03   5.026754e-04   8634
  1.329722e-01   5.401366e-02   3.095256e-03   5.364529e-04   10336
  1.436677e-01   5.939986e-02   3.082009e-03   5.360455e-04   11940
  1.541872e-01   6.300827e-02   3.021465e-03   5.502019e-04   13490
  1.647185e-01   6.795743e-02   3.054444e-03   5.382114e-04   15656
  1.754149e-01   7.402897e-02   3.102608e-03   5.564114e-04   18008
  1.860920e-01   8.273482e-02   3.069464e-03   5.849151e-04   19964
  1.966957e-01   9.013000e-02   3.066093e-03   6.045134e-04   22354
  2.072851e-01   9.481817e-02   3.030819e-03   6.064314e-04   24648
  2.179134e-01   9.962309e-02   3.083109e-03   5.989364e-04   27592
  2.285517e-01   1.045965e-01   3.075318e-03   5.973586e-04   30152
  2.391687e-01   1.110987e-01   3.069056e-03   6.106160e-04   33046
  2.497808e-01   1.203814e-01   3.053846e-03   6.394327e-04   35992
  2.604233e-01   1.276880e-01   3.074764e-03   6.446730e-04   39304
  2.710722e-01   1.357554e-01   3.082145e-03   6.539436e-04   42608
  2.817050e-01   1.388887e-01   3.058267e-03   6.544627e-04   45758
  2.923349e-01   1.439241e-01   3.072286e-03   6.535748e-04   49536
  3.029238e-01   1.506429e-01   3.039208e-03   6.637255e-04   52488
  3.135134e-01   1.591213e-01   3.084628e-03   6.699904e-04   57034
  3.241511e-01   1.624772e-01   3.061146e-03   6.596671e-04   60648
  3.347969e-01   1.709452e-01   3.076329e-03   6.742342e-04   65044
  3.454223e-01   1.786769e-01   3.057760e-03   6.785444e-04   68720
  3.560505e-01   1.832158e-01   3.078281e-03   6.745864e-04   73538
  3.667175e-01   1.894404e-01   3.076939e-03   6.773858e-04   78080
  3.773260e-01   1.975260e-01   3.039859e-03   6.906055e-04   81572
  3.879192e-01   2.042728e-01   3.081238e-03   6.905053e-04   87248
  3.985882e-01   2.100609e-01   3.084591e-03   6.929847e-04   92266
  4.092322e-01   2.172826e-01   3.063169e-03   7.008595e-04   96696
  4.198039e-01   2.236144e-01   3.037602e-03   7.074748e-04   100904
  4.303789e-01   2.293439e-01   3.065517e-03   7.077101e-04   107036
  4.410480e-01   2.368239e-01   3.089487e-03   7.040299e-04   113362
  4.517307e-01   2.428874e-01   3.072092e-03   7.092986e-04   118176
  4.623378e-01   2.510187e-01   3.054661e-03   7.203897e-04   122944
  4.729644e-01   2.576506e-01   3.083007e-03   7.138854e-04   129902
  4.836049e-01   2.617278e-01   3.061727e-03   7.115693e-04   134944
  4.942158e-01   2.707360e-01   3.064979e-03   7.231471e-04   140952
  5.048213e-01   2.752127e-01   3.064662e-03   7.241177e-04   147072
  5.154342e-01   2.825337e-01   3.060800e-03   7.203566e-04   153382
  5.260893e-01   2.904378e-01   3.082622e-03   7.210747e-04   160952
  5.367508e-01   2.967484e-01   3.070294e-03   7.246629e-04   166640
  5.473579e-01   3.034422e-01   3.057153e-03   7.363967e-04   172448
  5.579787e-01   3.109631e-01   3.077577e-03   7.297618e-04   180594
  5.686178e-01   3.174030e-01   3.060710e-03   7.318083e-04   186556
  5.792219e-01   3.242563e-01   3.063394e-03   7.404749e-04   193528
  5.898242e-01   3.331019e-01   3.060684e-03   7.454981e-04   200626
  6.004609e-01   3.384114e-01   3.076604e-03   7.430266e-04   209256
  6.111150e-01   3.474186e-01   3.069663e-03   7.472436e-04   216020
  6.217510e-01   3.545931e-01   3.075746e-03   7.491585e-04   223768
  6.323610e-01   3.591808e-01   3.055783e-03   7.487390e-04   230234
  6.429887e-01   3.674792e-01   3.074922e-03   7.528566e-04   239800
  6.536248e-01   3.734462e-01   3.063054e-03   7.520296e-04   246568
  6.642393e-01   3.827801e-01   3.068328e-03   7.570411e-04   254828
  6.748534e-01   3.893573e-01   3.064424e-03   7.566356e-04   263074
  6.854951e-01   3.958841e-01   3.071509e-03   7.594641e-04   272312
  6.961385e-01   4.029174e-01   3.070197e-03   7.614404e-04   280376
  7.067732e-01   4.111362e-01   3.071500e-03   7.687354e-04   288884
  7.174012e-01   4.164593e-01   3.068501e-03   7.638231e-04   297602
  7.280177e-01   4.265448e-01   3.057614e-03   7.724835e-04   305520
  7.386402e-01   4.332934e-01   3.075198e-03   7.711293e-04   315976
  7.492461e-01   4.385067e-01   3.052723e-03   7.733749e-04   322778
  7.598720e-01   4.506119e-01   3.080021e-03   7.794497e-04   335372
  7.705286e-01   4.537434e-01   3.068318e-03   7.763013e-04   343464
  7.811635e-01   4.616069e-01   3.070705e-03   7.736562e-04   352912
  7.917934e-01   4.704961e-01   3.070498e-03   7.815839e-04   362666
  8.024224e-01   4.795385e-01   3.063690e-03   7.859816e-04   371884
  8.130465e-01   4.857845e-01   3.069929e-03   7.864942e-04   382280
  8.236583e-01   4.945540e-01   3.060755e-03   7.881314e-04   390888
  8.342648e-01   5.007209e-01   3.067168e-03   7.907000e-04   402234
  8.448912e-01   5.098951e-01   3.064832e-03   7.938373e-04   412576
  8.555263e-01   5.151543e-01   3.071788e-03   7.905705e-04   423732
  8.661590e-01   5.246341e-01   3.068142e-03   7.993323e-04   433624
  8.767950e-01   5.321799e-01   3.072203e-03   7.981653e-04   445154
  8.874347e-01   5.380616e-01   3.069139e-03   7.988850e-04   455584
  8.980596e-01   5.455472e-01   3.064716e-03   7.985204e-04   465588
  9.086714e-01   5.528141e-01   3.065163e-03   7.979390e-04   476762
  9.193048e-01   5.617568e-01   3.073106e-03   8.024651e-04   489552
  9.299472e-01   5.709084e-01   3.069632e-03   8.088961e-04   500328
  9.405628e-01   5.782041e-01   3.059261e-03   8.097025e-04   509852
  9.511854e-01   5.859005e-01   3.074339e-03   8.099224e-04   524234
  9.618189e-01   5.954103e-01   3.061952e-03   8.156062e-04   534104
  9.724448e-01   6.000395e-01   3.070528e-03   8.120849e-04   547048
  9.830800e-01   6.112349e-01   3.073862e-03   8.190508e-04   559328
  9.937180e-01   6.185854e-01   3.070866e-03   8.172364e-04   571326
  1.004339e+00   6.270847e-01   3.060367e-03   8.206563e-04   581920
  1.014951e+00   6.340962e-01   3.064588e-03   8.233553e-04   594832
  1.025571e+00   6.429524e-01   3.068054e-03   8.234165e-04   608048
  1.036206e+00   6.503182e-01   3.070252e-03   8.234046e-04   621526
  1.046839e+00   6.574662e-01   3.066112e-03   8.235172e-04   633240
  1.057456e+00   6.658076e-01   3.064953e-03   8.287041e-04   645472
  1.068086e+00   6.772828e-01   3.075342e-03   8.328541e-04   660906
  1.078726e+00   6.844091e-01   3.067576e-03   8.358334e-04   672856
  1.089356e+00   6.912084e-01   3.067094e-03   8.361221e-04   685980
  1.099980e+00   7.008176e-01   3.067978e-03   8.397731e-04   699256
  1.110619e+00   7.057935e-01   3.074976e-03   8.353017e-04   714730
  1.121246e+00   7.156955e-01   3.059348e-03   8.400391e-04   725152
  1.131863e+00   7.253085e-01   3.067634e-03   8.444960e-04   740420
  1.142485e+00   7.320446e-01   3.069089e-03   8.459207e-04   754312
  1.153114e+00   7.414103e-01   3.069897e-03   8.480178e-04   769114
  1.163749e+00   7.508111e-01   3.069209e-03   8.464267e-04   783488
  1.174365e+00   7.575418e-01   3.058900e-03   8.475241e-04   794968
  1.184981e+00   7.691867e-01   3.070107e-03   8.548536e-04   812366
  1.195609e+00   7.766657e-01   3.065134e-03   8.561032e-04   825976
  1.206250e+00   7.847878e-01   3.075220e-03   8.537608e-04   843352
  1.216898e+00   7.946747e-01   3.073224e-03   8.593237e-04   857280
  1.227524e+00   8.019935e-01   3.063189e-03   8.612161e-04   869542
  1.238147e+00   8.125634e-01   3.070752e-03   8.632457e-04   887128
  1.248772e+00   8.182240e-01   3.063166e-03   8.640076e-04   900032
  1.259388e+00   8.263857e-01   3.067377e-03   8.628815e-04   916560
  1.270005e+00   8.348293e-01   3.061783e-03   8.658160e-04   930922
  1.280635e+00   8.439489e-01   3.071795e-03   8.664189e-04   949844
  1.291287e+00   8.537286e-01   3.076939e-03   8.683652e-04   966736
  1.301925e+00   8.636277e-01   3.065819e-03   8.716659e-04   978776
  1.312537e+00   8.720804e-01   3.064137e-03   8.757963e-04   994522
  1.323161e+00   8.794859e-01   3.068907e-03   8.762845e-04   1012420
  1.333794e+00   8.888384e-01   3.071598e-03   8.779029e-04   1029408
  1.344410e+00   8.975131e-01   3.058405e-03   8.790983e-04   1041658
  1.355032e+00   9.065832e-01   3.072381e-03   8.805138e-04   1063520
  1.365659e+00   9.147979e-01   3.060689e-03   8.815432e-04   1075808
  1.376294e+00   9.258564e-01   3.080019e-03   8.825559e-04   1098956
  1.386928e+00   9.323204e-01   3.061670e-03   8.849563e-04   1109810
  1.397545e+00   9.443914e-01   3.065288e-03   8.893222e-04   1128608
  1.408178e+00   9.541062e-01   3.073589e-03   8.909963e-04   1148264
  1.418813e+00   9.623279e-01   3.067917e-03   8.946435e-04   1163252
  1.429436e+00   9.697834e-01   3.067070e-03   8.929183e-04   1181042
  1.440060e+00   9.791463e-01   3.064325e-03   8.961602e-04   1197848
  1.450692e+00   9.871703e-01   3.073737e-03   8.938209e-04   1218848
  1.461323e+00   9.959425e-01   3.064859e-03   8.972519e-04   1232916
  1.471945e+00   1.005057e+00   3.068844e-03   8.986985e-04   1253002
  1.482566e+00   1.013004e+00   3.062284e-03   8.982946e-04   1268576
  1.493191e+00   1.022695e+00   3.071552e-03   9.028764e-04   1290128
  1.503822e+00   1.035605e+00   3.068342e-03   9.072033e-04   1307402
  1.514455e+00   1.040008e+00   3.069122e-03   9.040269e-04   1327028
  1.525083e+00   1.049736e+00   3.064970e-03   9.049261e-04   1343648
  1.535711e+00   1.062248e+00   3.070217e-03   9.096394e-04   1364096
  1.546341e+00   1.068393e+00   3.068950e-03   9.095561e-04   1382730
  1.556974e+00   1.079514e+00   3.068757e-03   9.127099e-04   1402164
  1.567604e+00   1.087565e+00   3.068159e-03   9.130945e-04   1420464
  1.578221e+00   1.095111e+00   3.063798e-03   9.168280e-04   1437368
  1.588847e+00   1.107102e+00   3.072142e-03   9.154622e-04   1461530
  1.599480e+00   1.114622e+00   3.065069e-03   9.163348e-04   1478264
  1.610108e+00   1.125628e+00   3.068902e-03   9.211737e-04   1499356
  1.620732e+00   1.133239e+00   3.065238e-03   9.222751e-04   1517016
  1.631360e+00   1.144418e+00   3.070849e-03   9.230633e-04   1540090
  1.641988e+00   1.153650e+00   3.065366e-03   9.248723e-04   1557360
  1.652609e+00   1.160919e+00   3.066926e-03   9.257181e-04   1577780
  1.663242e+00   1.171826e+00   3.075107e-03   9.276937e-04   1602578
  1.673875e+00   1.181318e+00   3.063542e-03   9.291061e-04   1617672
  1.684498e+00   1.192070e+00   3.069033e-03   9.312384e-04   1641016
  1.695122e+00   1.200922e+00   3.065080e-03   9.332570e-04   1659416
  1.705746e+00   1.210384e+00   3.068431e-03   9.326544e-04   1682670
  1.716382e+00   1.219703e+00   3.070690e-03   9.346789e-04   1705256
  1.727024e+00   1.229425e+00   3.071890e-03   9.364950e-04   1726312
  1.737645e+00   1.237372e+00   3.062639e-03   9.376954e-04   1741880
  1.748261e+00   1.248425e+00   3.067156e-03   9.400944e-04   1766454
  1.758897e+00   1.258675e+00   3.073105e-03   9.420954e-04   1791784
  1.769528e+00   1.267745e+00   3.063894e-03   9.444355e-04   1807712
  1.780139e+00   1.276041e+00   3.062775e-03   9.446791e-04   1829002
  1.790759e+00   1.283078e+00   3.067263e-03   9.437664e-04   1854216
  1.801400e+00   1.296035e+00   3.074631e-03   9.479363e-04   1880156
  1.812037e+00   1.303344e+00   3.068349e-03   9.471276e-04   1897568
  1.822663e+00   1.314845e+00   3.068475e-03   9.485517e-04   1920458
  1.833288e+00   1.325628e+00   3.065997e-03   9.527080e-04   1942208
  1.843915e+00   1.332946e+00   3.067813e-03   9.528347e-04   1965612
  1.854544e+00   1.342875e+00   3.069639e-03   9.526990e-04   1989000
  1.865168e+00   1.351918e+00   3.064465e-03   9.534667e-04   2009114
  1.875791e+00   1.361514e+00   3.067400e-03   9.560496e-04   2034464
  1.886424e+00   1.372477e+00   3.070174e-03   9.573301e-04   2058476
  1.897052e+00   1.380379e+00   3.068039e-03   9.575539e-04   2079648
  1.907673e+00   1.390454e+00   3.065891e-03   9.581109e-04   2102578
  1.918306e+00   1.400972e+00   3.070742e-03   9.611432e-04   2129928
  1.928942e+00   1.411018e+00   3.069733e-03   9.610959e-04   2152096
  1.939563e+00   1.421571e+00   3.062858e-03   9.659346e-04   2171142
  1.950185e+00   1.429985e+00   3.069150e-03   9.652094e-04   2200248
  1.960824e+00   1.439477e+00   3.071017e-03   9.655710e-04   2225216
  1.971460e+00   1.449496e+00   3.070942e-03   9.669430e-04   2248448
  1.982084e+00   1.460409e+00   3.064272e-03   9.706699e-04   2267942
  1.992710e+00   1.466964e+00   3.071051e-03   9.679296e-04   2298072
  2.003337e+00   1.478574e+00   3.064068e-03   9.725390e-04   2317272
  2.013961e+00   1.486866e+00   3.069747e-03   9.718582e-04   2345808
  2.024580e+00   1.497205e+00   3.062469e-03   9.748889e-04   2365650
  2.035206e+00   1.508930e+00   3.069930e-03   9.735132e-04   2396940
  2.045842e+00   1.514980e+00   3.069936e-03   9.731830e-04   2421272
  2.056473e+00   1.527987e+00   3.068399e-03   9.778109e-04   2444576
  2.067102e+00   1.534396e+00   3.069748e-03   9.773746e-04   2471490
  2.077728e+00   1.544456e+00   3.064854e-03   9.796741e-04   2493180
  2.088349e+00   1.553742e+00   3.068019e-03   9.800741e-04   2520952
  2.098972e+00   1.565082e+00   3.065319e-03   9.834465e-04   2544946
  2.109598e+00   1.574503e+00   3.068311e-03   9.835901e-04   2573856
  2.120230e+00   1.585527e+00   3.069026e-03   9.840124e-04   2600016
  2.130862e+00   1.593730e+00   3.069102e-03   9.852250e-04   2625484
  2.141490e+00   1.604493e+00   3.068080e-03   9.864428e-04   2651122
  2.152130e+00   1.612246e+00   3.074348e-03   9.861106e-04   2683488
  2.162754e+00   1.623818e+00   3.059466e-03   9.903588e-04   2696352
  2.173371e+00   1.630124e+00   3.071171e-03   9.863248e-04   2733020
  2.184002e+00   1.640840e+00   3.067530e-03   9.896973e-04   2757378
  2.194631e+00   1.652440e+00   3.067942e-03   9.920740e-04   2784864
  2.205259e+00   1.660507e+00   3.067811e-03   9.924126e-04   2811168
  2.215874e+00   1.671077e+00   3.061061e-03   9.934054e-04   2832274
  2.226505e+00   1.681010e+00   3.075611e-03   9.928480e-04   2873636
  2.237142e+00   1.688956e+00   3.064877e-03   9.961503e-04   2890496
  2.247766e+00   1.700559e+00   3.069851e-03   9.957668e-04   2921800
  2.258399e+00   1.708861e+00   3.071101e-03   9.961621e-04   2951298
  2.269032e+00   1.722246e+00   3.066274e-03   9.999292e-04   2975476
  2.279663e+00   1.728939e+00   3.071375e-03   9.977727e-04   3007728
  2.290285e+00   1.737384e+00   3.061886e-03   9.997651e-04   3025776
  2.300910e+00   1.748323e+00   3.072955e-03   1.001749e-03   3065762
  2.311540e+00   1.758754e+00   3.063208e-03   1.001279e-03   3084856
  2.322162e+00   1.764621e+00   3.068985e-03   1.000975e-03   3118044
  2.332782e+00   1.777037e+00   3.064319e-03   1.003833e-03   3141352
  2.343410e+00   1.787991e+00   3.072036e-03   1.004944e-03   3179274
  2.354046e+00   1.795441e+00   3.067682e-03   1.002967e-03   3204120
  2.364668e+00   1.806965e+00   3.063610e-03   1.006873e-03   3227900
  2.375288e+00   1.812705e+00   3.068722e-03   1.005574e-03   3262394
  2.385925e+00   1.823944e+00   3.071814e-03   1.006475e-03   3295680
  2.396559e+00   1.834333e+00   3.067166e-03   1.008072e-03   3319560
  2.407184e+00   1.842641e+00   3.068070e-03   1.007679e-03   3348972
  2.417810e+00   1.853500e+00   3.068540e-03   1.008686e-03   3379722
  2.428441e+00   1.862795e+00   3.068348e-03   1.011308e-03   3410720
  2.439075e+00   1.872114e+00   3.069517e-03   1.011543e-03   3441504
  2.449697e+00   1.882365e+00   3.063301e-03   1.012256e-03   3463624
  2.460317e+00   1.891906e+00   3.068043e-03   1.013659e-03   3499790
  2.470951e+00   1.901109e+00   3.070702e-03   1.013638e-03   3533560
  2.481588e+00   1.909383e+00   3.069830e-03   1.013387e-03   3561920
  2.492209e+00   1.918546e+00   3.064208e-03   1.014276e-03   3585208
  2.502830e+00   1.927790e+00   3.069185e-03   1.014213e-03   3622518
  2.513468e+00   1.937999e+00   3.072344e-03   1.015080e-03   3657584
  2.524094e+00   1.947719e+00   3.062507e-03   1.017380e-03   3676440
  2.534707e+00   1.957141e+00   3.065232e-03   1.018372e-03   3711282
  2.545334e+00   1.965396e+00   3.068763e-03   1.015403e-03   3747696
  2.555965e+00   1.976258e+00   3.067225e-03   1.018245e-03   3776188
  2.566601e+00   1.988262e+00   3.074483e-03   1.019917e-03   3815304
  2.577232e+00   1.992166e+00   3.064660e-03   1.019411e-03   3835370
  2.587856e+00   2.002863e+00   3.068926e-03   1.019856e-03   3873424
  2.598487e+00   2.014401e+00   3.067978e-03   1.020116e-03   3903420
  2.609117e+00   2.023170e+00   3.070036e-03   1.020623e-03   3937624
  2.619745e+00   2.028735e+00   3.066011e-03   1.020480e-03   3965658
  2.630375e+00   2.039507e+00   3.069802e-03   1.020050e-03   4002984
  2.641001e+00   2.048301e+00   3.065136e-03   1.021014e-03   4027928
  2.651616e+00   2.056328e+00   3.064941e-03   1.021912e-03   4059844
  2.662241e+00   2.068945e+00   3.069945e-03   1.024279e-03   4100338
  2.672876e+00   2.078975e+00   3.069128e-03   1.022922e-03   4132264
  2.683506e+00   2.083366e+00   3.068474e-03   1.022742e-03   4163216
  2.694131e+00   2.094228e+00   3.066146e-03   1.023910e-03   4193350
  2.704761e+00   2.104621e+00   3.071068e-03   1.024764e-03   4234456
  2.715390e+00   2.115510e+00   3.064079e-03   1.026587e-03   4257264
  2.726012e+00   2.121500e+00   3.069774e-03   1.025253e-03   4297352
  2.736640e+00   2.129794e+00   3.067495e-03   1.024687e-03   4328642
  2.747272e+00   2.141195e+00   3.070663e-03   1.025254e-03   4367948
  2.757895e+00   2.150193e+00   3.061799e-03   1.027569e-03   4388384
  2.768519e+00   2.156458e+00   3.072247e-03   1.025217e-03   4436648
  2.779154e+00   2.168870e+00   3.067997e-03   1.028417e-03   4465658
  2.789787e+00   2.174525e+00   3.069677e-03   1.025173e-03   4502948
  2.800413e+00   2.182235e+00   3.064787e-03   1.027078e-03   4528880
  2.811033e+00   2.194538e+00   3.067181e-03   1.027877e-03   4566290
  2.821663e+00   2.202527e+00   3.070655e-03   1.028051e-03   4606856
  2.832293e+00   2.212398e+00   3.066552e-03   1.029311e-03   4635380
  2.842916e+00   2.221757e+00   3.067131e-03   1.028959e-03   4670384
  2.853543e+00   2.230368e+00   3.069161e-03   1.030760e-03   4709258
  2.864179e+00   2.236223e+00   3.070324e-03   1.026281e-03   4747352
  2.874805e+00   2.249602e+00   3.063655e-03   1.031260e-03   4771664
  2.885427e+00   2.255420e+00   3.068600e-03   1.029358e-03   4813532
  2.896058e+00   2.266276e+00   3.070437e-03   1.029811e-03   4852322
  2.906693e+00   2.272424e+00   3.069013e-03   1.030230e-03   4886480
  2.917320e+00   2.280834e+00   3.066289e-03   1.029671e-03   4917248
  2.927939e+00   2.289890e+00   3.065099e-03   1.030923e-03   4950828
  2.938569e+00   2.299326e+00   3.072788e-03   1.030285e-03   5000170
  2.949204e+00   2.307739e+00   3.066857e-03   1.030759e-03   5026952
  2.959825e+00   2.317478e+00   3.064676e-03   1.031659e-03   5058752
  2.970445e+00   2.322278e+00   3.067741e-03   1.029866e-03   5100722
  2.981076e+00   2.332815e+00   3.068979e-03   1.030217e-03   5140124
  2.991706e+00   2.340421e+00   3.067937e-03   1.030830e-03   5174072
  3.002335e+00   2.351573e+00   3.068928e-03   1.032377e-03   5211608
  3.012962e+00   2.358411e+00   3.067917e-03   1.031293e-03   5247794
  3.023589e+00   2.365875e+00   3.066908e-03   1.031126e-03   5284196
  3.034222e+00   2.372828e+00   3.071657e-03   1.029733e-03   5328800
