# power spectrum of delta
# redshift z=1.293448
# k              Pk             sigma(k)       sigma(Pk)      count
  7.830312e-03   6.631446e-05   1.198114e-03   1.292737e-05   18
  1.686348e-02   1.831641e-03   2.897918e-03   1.978960e-04   152
  2.725284e-02   6.720194e-03   3.060867e-03   3.119307e-04   416
  3.742835e-02   1.358634e-02   2.912555e-03   5.236860e-04   770
  4.808679e-02   2.276927e-02   3.119650e-03   6.448046e-04   1364
  5.876109e-02   3.388576e-02   3.054550e-03   7.779399e-04   1976
  6.939824e-02   4.993321e-02   3.112555e-03   9.609618e-04   2792
  7.984642e-02   6.396720e-02   2.971805e-03   1.091134e-03   3578
  9.038229e-02   7.568245e-02   3.049521e-03   1.114784e-03   4724
  1.011318e-01   8.804636e-02   3.134595e-03   1.150064e-03   6032
  1.117485e-01   1.026740e-01   3.016599e-03   1.256955e-03   7072
  1.222702e-01   1.248709e-01   3.056387e-03   1.379713e-03   8634
  1.329722e-01   1.476580e-01   3.095256e-03   1.475184e-03   10336
  1.436677e-01   1.634362e-01   3.082009e-03   1.475297e-03   11940
  1.541872e-01   1.749915e-01   3.021465e-03   1.532468e-03   13490
  1.647185e-01   1.912128e-01   3.054444e-03   1.516661e-03   15656
  1.754149e-01   2.083008e-01   3.102608e-03   1.555074e-03   18008
  1.860920e-01   2.328115e-01   3.069464e-03   1.642687e-03   19964
  1.966957e-01   2.541981e-01   3.066093e-03   1.711111e-03   22354
  2.072851e-01   2.682257e-01   3.030819e-03   1.708505e-03   24648
  2.179134e-01   2.848532e-01   3.083109e-03   1.703835e-03   27592
  2.285517e-01   3.039923e-01   3.075318e-03   1.752087e-03   30152
  2.391687e-01   3.236017e-01   3.069056e-03   1.796895e-03   33046
  2.497808e-01   3.502979e-01   3.053846e-03   1.853376e-03   35992
  2.604233e-01   3.742385e-01   3.074764e-03   1.899061e-03   39304
  2.710722e-01   3.983481e-01   3.082145e-03   1.922019e-03   42608
  2.817050e-01   4.154059e-01   3.058267e-03   1.947102e-03   45758
  2.923349e-01   4.319651e-01   3.072286e-03   1.963385e-03   49536
  3.029238e-01   4.559185e-01   3.039208e-03   1.989651e-03   52488
  3.135134e-01   4.860965e-01   3.084628e-03   2.038675e-03   57034
  3.241511e-01   4.972889e-01   3.061146e-03   2.015380e-03   60648
  3.347969e-01   5.280410e-01   3.076329e-03   2.072312e-03   65044
  3.454223e-01   5.541626e-01   3.057760e-03   2.099784e-03   68720
  3.560505e-01   5.722637e-01   3.078281e-03   2.106571e-03   73538
  3.667175e-01   5.968671e-01   3.076939e-03   2.138748e-03   78080
  3.773260e-01   6.261282e-01   3.039859e-03   2.196400e-03   81572
  3.879192e-01   6.534675e-01   3.081238e-03   2.216098e-03   87248
  3.985882e-01   6.758292e-01   3.084591e-03   2.222468e-03   92266
  4.092322e-01   7.044600e-01   3.063169e-03   2.280936e-03   96696
  4.198039e-01   7.253690e-01   3.037602e-03   2.298127e-03   100904
  4.303789e-01   7.560303e-01   3.065517e-03   2.320688e-03   107036
  4.410480e-01   7.863714e-01   3.089487e-03   2.340579e-03   113362
  4.517307e-01   8.106818e-01   3.072092e-03   2.343945e-03   118176
  4.623378e-01   8.410387e-01   3.054661e-03   2.419480e-03   122944
  4.729644e-01   8.706101e-01   3.083007e-03   2.432974e-03   129902
  4.836049e-01   8.923518e-01   3.061727e-03   2.428049e-03   134944
  4.942158e-01   9.305125e-01   3.064979e-03   2.486780e-03   140952
  5.048213e-01   9.523870e-01   3.064662e-03   2.495161e-03   147072
  5.154342e-01   9.842917e-01   3.060800e-03   2.507937e-03   153382
  5.260893e-01   1.019162e+00   3.082622e-03   2.521346e-03   160952
  5.367508e-01   1.041973e+00   3.070294e-03   2.557289e-03   166640
  5.473579e-01   1.083449e+00   3.057153e-03   2.613693e-03   172448
  5.579787e-01   1.108353e+00   3.077577e-03   2.618062e-03   180594
  5.686178e-01   1.142745e+00   3.060710e-03   2.637087e-03   186556
  5.792219e-01   1.173695e+00   3.063394e-03   2.659774e-03   193528
  5.898242e-01   1.212069e+00   3.060684e-03   2.702183e-03   200626
  6.004609e-01   1.240922e+00   3.076604e-03   2.723084e-03   209256
  6.111150e-01   1.278441e+00   3.069663e-03   2.755052e-03   216020
  6.217510e-01   1.318797e+00   3.075746e-03   2.787713e-03   223768
  6.323610e-01   1.344009e+00   3.055783e-03   2.814394e-03   230234
  6.429887e-01   1.384896e+00   3.074922e-03   2.826192e-03   239800
  6.536248e-01   1.421967e+00   3.063054e-03   2.865782e-03   246568
  6.642393e-01   1.463240e+00   3.068328e-03   2.897954e-03   254828
  6.748534e-01   1.488678e+00   3.064424e-03   2.894400e-03   263074
  6.854951e-01   1.526563e+00   3.071509e-03   2.925225e-03   272312
  6.961385e-01   1.566910e+00   3.070197e-03   2.958998e-03   280376
  7.067732e-01   1.608501e+00   3.071500e-03   2.998389e-03   288884
  7.174012e-01   1.642359e+00   3.068501e-03   3.007302e-03   297602
  7.280177e-01   1.692899e+00   3.057614e-03   3.061208e-03   305520
  7.386402e-01   1.722697e+00   3.075198e-03   3.055487e-03   315976
  7.492461e-01   1.762502e+00   3.052723e-03   3.086252e-03   322778
  7.598720e-01   1.813166e+00   3.080021e-03   3.127526e-03   335372
  7.705286e-01   1.843480e+00   3.068318e-03   3.146682e-03   343464
  7.811635e-01   1.885128e+00   3.070705e-03   3.180934e-03   352912
  7.917934e-01   1.925249e+00   3.070498e-03   3.186631e-03   362666
  8.024224e-01   1.974443e+00   3.063690e-03   3.247783e-03   371884
  8.130465e-01   2.016581e+00   3.069929e-03   3.250583e-03   382280
  8.236583e-01   2.059627e+00   3.060755e-03   3.289581e-03   390888
  8.342648e-01   2.099464e+00   3.067168e-03   3.316493e-03   402234
  8.448912e-01   2.159268e+00   3.064832e-03   3.358900e-03   412576
  8.555263e-01   2.184074e+00   3.071788e-03   3.354678e-03   423732
  8.661590e-01   2.233212e+00   3.068142e-03   3.389250e-03   433624
  8.767950e-01   2.280607e+00   3.072203e-03   3.412047e-03   445154
  8.874347e-01   2.333488e+00   3.069139e-03   3.465101e-03   455584
  8.980596e-01   2.371868e+00   3.064716e-03   3.474337e-03   465588
  9.086714e-01   2.416876e+00   3.065163e-03   3.502305e-03   476762
  9.193048e-01   2.462750e+00   3.073106e-03   3.520745e-03   489552
  9.299472e-01   2.518856e+00   3.069632e-03   3.566563e-03   500328
  9.405628e-01   2.571696e+00   3.059261e-03   3.603048e-03   509852
  9.511854e-01   2.610864e+00   3.074339e-03   3.607366e-03   524234
  9.618189e-01   2.658345e+00   3.061952e-03   3.634726e-03   534104
  9.724448e-01   2.709327e+00   3.070528e-03   3.668116e-03   547048
  9.830800e-01   2.757429e+00   3.073862e-03   3.679876e-03   559328
  9.937180e-01   2.812531e+00   3.070866e-03   3.717003e-03   571326
  1.004339e+00   2.856040e+00   3.060367e-03   3.742395e-03   581920
  1.014951e+00   2.909637e+00   3.064588e-03   3.771530e-03   594832
  1.025571e+00   2.955644e+00   3.068054e-03   3.791529e-03   608048
  1.036206e+00   3.018938e+00   3.070252e-03   3.830153e-03   621526
  1.046839e+00   3.067948e+00   3.066112e-03   3.869264e-03   633240
  1.057456e+00   3.114246e+00   3.064953e-03   3.871819e-03   645472
  1.068086e+00   3.162469e+00   3.075342e-03   3.896864e-03   660906
  1.078726e+00   3.218951e+00   3.067576e-03   3.925000e-03   672856
  1.089356e+00   3.273529e+00   3.067094e-03   3.942694e-03   685980
  1.099980e+00   3.329897e+00   3.067978e-03   3.977533e-03   699256
  1.110619e+00   3.383516e+00   3.074976e-03   3.997956e-03   714730
  1.121246e+00   3.438954e+00   3.059348e-03   4.047919e-03   725152
  1.131863e+00   3.494282e+00   3.067634e-03   4.064924e-03   740420
  1.142485e+00   3.539358e+00   3.069089e-03   4.085225e-03   754312
  1.153114e+00   3.593471e+00   3.069897e-03   4.106713e-03   769114
  1.163749e+00   3.659873e+00   3.069209e-03   4.145919e-03   783488
  1.174365e+00   3.708809e+00   3.058900e-03   4.163894e-03   794968
  1.184981e+00   3.769173e+00   3.070107e-03   4.183142e-03   812366
  1.195609e+00   3.832744e+00   3.065134e-03   4.220037e-03   825976
  1.206250e+00   3.880322e+00   3.075220e-03   4.228009e-03   843352
  1.216898e+00   3.933143e+00   3.073224e-03   4.248895e-03   857280
  1.227524e+00   4.007207e+00   3.063189e-03   4.291511e-03   869542
  1.238147e+00   4.066369e+00   3.070752e-03   4.320240e-03   887128
  1.248772e+00   4.123780e+00   3.063166e-03   4.347841e-03   900032
  1.259388e+00   4.173479e+00   3.067377e-03   4.357438e-03   916560
  1.270005e+00   4.223736e+00   3.061783e-03   4.392083e-03   930922
  1.280635e+00   4.292882e+00   3.071795e-03   4.404928e-03   949844
  1.291287e+00   4.362107e+00   3.076939e-03   4.419628e-03   966736
  1.301925e+00   4.415323e+00   3.065819e-03   4.465256e-03   978776
  1.312537e+00   4.477340e+00   3.064137e-03   4.490143e-03   994522
  1.323161e+00   4.534615e+00   3.068907e-03   4.501624e-03   1012420
  1.333794e+00   4.586789e+00   3.071598e-03   4.521024e-03   1029408
  1.344410e+00   4.654671e+00   3.058405e-03   4.571230e-03   1041658
  1.355032e+00   4.719125e+00   3.072381e-03   4.570558e-03   1063520
  1.365659e+00   4.785193e+00   3.060689e-03   4.608128e-03   1075808
  1.376294e+00   4.843306e+00   3.080019e-03   4.614797e-03   1098956
  1.386928e+00   4.911796e+00   3.061670e-03   4.669280e-03   1109810
  1.397545e+00   4.978911e+00   3.065288e-03   4.688335e-03   1128608
  1.408178e+00   5.040050e+00   3.073589e-03   4.689504e-03   1148264
  1.418813e+00   5.097501e+00   3.067917e-03   4.731633e-03   1163252
  1.429436e+00   5.154118e+00   3.067070e-03   4.750823e-03   1181042
  1.440060e+00   5.230836e+00   3.064325e-03   4.772868e-03   1197848
  1.450692e+00   5.275779e+00   3.073737e-03   4.772081e-03   1218848
  1.461323e+00   5.353159e+00   3.064859e-03   4.820976e-03   1232916
  1.471945e+00   5.412582e+00   3.068844e-03   4.841207e-03   1253002
  1.482566e+00   5.479386e+00   3.062284e-03   4.862924e-03   1268576
  1.493191e+00   5.542874e+00   3.071552e-03   4.881277e-03   1290128
  1.503822e+00   5.605354e+00   3.068342e-03   4.901638e-03   1307402
  1.514455e+00   5.675578e+00   3.069122e-03   4.925574e-03   1327028
  1.525083e+00   5.730316e+00   3.064970e-03   4.940549e-03   1343648
  1.535711e+00   5.800094e+00   3.070217e-03   4.968923e-03   1364096
  1.546341e+00   5.862822e+00   3.068950e-03   4.999853e-03   1382730
  1.556974e+00   5.924192e+00   3.068757e-03   5.003302e-03   1402164
  1.567604e+00   5.989899e+00   3.068159e-03   5.024220e-03   1420464
  1.578221e+00   6.050753e+00   3.063798e-03   5.051719e-03   1437368
  1.588847e+00   6.127058e+00   3.072142e-03   5.059987e-03   1461530
  1.599480e+00   6.182623e+00   3.065069e-03   5.090249e-03   1478264
  1.610108e+00   6.264888e+00   3.068902e-03   5.117928e-03   1499356
  1.620732e+00   6.327060e+00   3.065238e-03   5.134188e-03   1517016
  1.631360e+00   6.394831e+00   3.070849e-03   5.150589e-03   1540090
  1.641988e+00   6.442205e+00   3.065366e-03   5.167443e-03   1557360
  1.652609e+00   6.533354e+00   3.066926e-03   5.200965e-03   1577780
  1.663242e+00   6.585328e+00   3.075107e-03   5.201144e-03   1602578
  1.673875e+00   6.669177e+00   3.063542e-03   5.242700e-03   1617672
  1.684498e+00   6.739675e+00   3.069033e-03   5.256491e-03   1641016
  1.695122e+00   6.801285e+00   3.065080e-03   5.291816e-03   1659416
  1.705746e+00   6.851221e+00   3.068431e-03   5.270600e-03   1682670
  1.716382e+00   6.925728e+00   3.070690e-03   5.304520e-03   1705256
  1.727024e+00   6.975910e+00   3.071890e-03   5.314677e-03   1726312
  1.737645e+00   7.057924e+00   3.062639e-03   5.359506e-03   1741880
  1.748261e+00   7.123625e+00   3.067156e-03   5.359042e-03   1766454
  1.758897e+00   7.192279e+00   3.073105e-03   5.370215e-03   1791784
  1.769528e+00   7.267918e+00   3.063894e-03   5.410887e-03   1807712
  1.780139e+00   7.340336e+00   3.062775e-03   5.432215e-03   1829002
  1.790759e+00   7.402049e+00   3.067263e-03   5.444298e-03   1854216
  1.801400e+00   7.486344e+00   3.074631e-03   5.458466e-03   1880156
  1.812037e+00   7.531449e+00   3.068349e-03   5.464169e-03   1897568
  1.822663e+00   7.601175e+00   3.068475e-03   5.488749e-03   1920458
  1.833288e+00   7.663872e+00   3.065997e-03   5.502831e-03   1942208
  1.843915e+00   7.727065e+00   3.067813e-03   5.506606e-03   1965612
  1.854544e+00   7.793599e+00   3.069639e-03   5.525330e-03   1989000
  1.865168e+00   7.872191e+00   3.064465e-03   5.553248e-03   2009114
  1.875791e+00   7.936591e+00   3.067400e-03   5.559573e-03   2034464
  1.886424e+00   8.010393e+00   3.070174e-03   5.583410e-03   2058476
  1.897052e+00   8.074467e+00   3.068039e-03   5.595263e-03   2079648
  1.907673e+00   8.130356e+00   3.065891e-03   5.615238e-03   2102578
  1.918306e+00   8.196224e+00   3.070742e-03   5.609835e-03   2129928
  1.928942e+00   8.273489e+00   3.069733e-03   5.637730e-03   2152096
  1.939563e+00   8.339879e+00   3.062858e-03   5.660489e-03   2171142
  1.950185e+00   8.401001e+00   3.069150e-03   5.673241e-03   2200248
  1.960824e+00   8.458826e+00   3.071017e-03   5.669524e-03   2225216
  1.971460e+00   8.542118e+00   3.070942e-03   5.688906e-03   2248448
  1.982084e+00   8.592220e+00   3.064272e-03   5.715342e-03   2267942
  1.992710e+00   8.677976e+00   3.071051e-03   5.723015e-03   2298072
  2.003337e+00   8.736866e+00   3.064068e-03   5.739660e-03   2317272
  2.013961e+00   8.795007e+00   3.069747e-03   5.747099e-03   2345808
  2.024580e+00   8.867472e+00   3.062469e-03   5.760147e-03   2365650
  2.035206e+00   8.931962e+00   3.069930e-03   5.778864e-03   2396940
  2.045842e+00   9.010962e+00   3.069936e-03   5.783528e-03   2421272
  2.056473e+00   9.083296e+00   3.068399e-03   5.811374e-03   2444576
  2.067102e+00   9.134025e+00   3.069748e-03   5.811117e-03   2471490
  2.077728e+00   9.186467e+00   3.064854e-03   5.821883e-03   2493180
  2.088349e+00   9.275553e+00   3.068019e-03   5.841101e-03   2520952
  2.098972e+00   9.310624e+00   3.065319e-03   5.825876e-03   2544946
  2.109598e+00   9.384967e+00   3.068311e-03   5.847458e-03   2573856
  2.120230e+00   9.458516e+00   3.069026e-03   5.865274e-03   2600016
  2.130862e+00   9.520180e+00   3.069102e-03   5.876560e-03   2625484
  2.141490e+00   9.588843e+00   3.068080e-03   5.898133e-03   2651122
  2.152130e+00   9.659483e+00   3.074348e-03   5.899004e-03   2683488
  2.162754e+00   9.717913e+00   3.059466e-03   5.918020e-03   2696352
  2.173371e+00   9.787324e+00   3.071171e-03   5.918646e-03   2733020
  2.184002e+00   9.833676e+00   3.067530e-03   5.924352e-03   2757378
  2.194631e+00   9.910004e+00   3.067942e-03   5.943066e-03   2784864
  2.205259e+00   9.979488e+00   3.067811e-03   5.949994e-03   2811168
  2.215874e+00   1.002589e+01   3.061061e-03   5.956064e-03   2832274
  2.226505e+00   1.010551e+01   3.075611e-03   5.951980e-03   2873636
  2.237142e+00   1.017435e+01   3.064877e-03   5.990824e-03   2890496
  2.247766e+00   1.021902e+01   3.069851e-03   5.972415e-03   2921800
  2.258399e+00   1.027665e+01   3.071101e-03   5.972892e-03   2951298
  2.269032e+00   1.035466e+01   3.066274e-03   6.009697e-03   2975476
  2.279663e+00   1.041382e+01   3.071375e-03   6.002222e-03   3007728
  2.290285e+00   1.047335e+01   3.061886e-03   6.022953e-03   3025776
  2.300910e+00   1.056570e+01   3.072955e-03   6.039844e-03   3065762
  2.311540e+00   1.058753e+01   3.063208e-03   6.027716e-03   3084856
  2.322162e+00   1.065295e+01   3.068985e-03   6.036490e-03   3118044
  2.332782e+00   1.070325e+01   3.064319e-03   6.037229e-03   3141352
  2.343410e+00   1.078345e+01   3.072036e-03   6.049187e-03   3179274
  2.354046e+00   1.084139e+01   3.067682e-03   6.050848e-03   3204120
  2.364668e+00   1.089186e+01   3.063610e-03   6.067046e-03   3227900
  2.375288e+00   1.096636e+01   3.068722e-03   6.070491e-03   3262394
  2.385925e+00   1.101354e+01   3.071814e-03   6.068927e-03   3295680
  2.396559e+00   1.107781e+01   3.067166e-03   6.078158e-03   3319560
  2.407184e+00   1.111230e+01   3.068070e-03   6.076367e-03   3348972
  2.417810e+00   1.118166e+01   3.068540e-03   6.091400e-03   3379722
  2.428441e+00   1.125426e+01   3.068348e-03   6.081949e-03   3410720
  2.439075e+00   1.131425e+01   3.069517e-03   6.097860e-03   3441504
  2.449697e+00   1.137176e+01   3.063301e-03   6.112868e-03   3463624
  2.460317e+00   1.140642e+01   3.068043e-03   6.106906e-03   3499790
  2.470951e+00   1.147912e+01   3.070702e-03   6.113103e-03   3533560
  2.481588e+00   1.152169e+01   3.069830e-03   6.097487e-03   3561920
  2.492209e+00   1.159339e+01   3.064208e-03   6.122241e-03   3585208
  2.502830e+00   1.164059e+01   3.069185e-03   6.119234e-03   3622518
  2.513468e+00   1.169730e+01   3.072344e-03   6.113891e-03   3657584
  2.524094e+00   1.175972e+01   3.062507e-03   6.141101e-03   3676440
  2.534707e+00   1.182717e+01   3.065232e-03   6.138499e-03   3711282
  2.545334e+00   1.185905e+01   3.068763e-03   6.120080e-03   3747696
  2.555965e+00   1.192000e+01   3.067225e-03   6.133570e-03   3776188
  2.566601e+00   1.198675e+01   3.074483e-03   6.139056e-03   3815304
  2.577232e+00   1.202010e+01   3.064660e-03   6.132907e-03   3835370
  2.587856e+00   1.208870e+01   3.068926e-03   6.148015e-03   3873424
  2.598487e+00   1.213344e+01   3.067978e-03   6.137834e-03   3903420
  2.609117e+00   1.218916e+01   3.070036e-03   6.144614e-03   3937624
  2.619745e+00   1.223282e+01   3.066011e-03   6.142703e-03   3965658
  2.630375e+00   1.230044e+01   3.069802e-03   6.148591e-03   4002984
  2.641001e+00   1.234853e+01   3.065136e-03   6.143936e-03   4027928
  2.651616e+00   1.240038e+01   3.064941e-03   6.155453e-03   4059844
  2.662241e+00   1.244640e+01   3.069945e-03   6.155800e-03   4100338
  2.672876e+00   1.248170e+01   3.069128e-03   6.138978e-03   4132264
  2.683506e+00   1.253900e+01   3.068474e-03   6.147727e-03   4163216
  2.694131e+00   1.259409e+01   3.066146e-03   6.153457e-03   4193350
  2.704761e+00   1.264642e+01   3.071068e-03   6.137484e-03   4234456
  2.715390e+00   1.269100e+01   3.064079e-03   6.151436e-03   4257264
  2.726012e+00   1.273175e+01   3.069774e-03   6.141884e-03   4297352
  2.736640e+00   1.278692e+01   3.067495e-03   6.140974e-03   4328642
  2.747272e+00   1.283020e+01   3.070663e-03   6.144278e-03   4367948
  2.757895e+00   1.287962e+01   3.061799e-03   6.149705e-03   4388384
  2.768519e+00   1.293711e+01   3.072247e-03   6.138098e-03   4436648
  2.779154e+00   1.296958e+01   3.067997e-03   6.138639e-03   4465658
  2.789787e+00   1.303491e+01   3.069677e-03   6.151037e-03   4502948
  2.800413e+00   1.306031e+01   3.064787e-03   6.135540e-03   4528880
  2.811033e+00   1.312307e+01   3.067181e-03   6.144747e-03   4566290
  2.821663e+00   1.315691e+01   3.070655e-03   6.131564e-03   4606856
  2.832293e+00   1.320857e+01   3.066552e-03   6.128866e-03   4635380
  2.842916e+00   1.325291e+01   3.067131e-03   6.127641e-03   4670384
  2.853543e+00   1.329201e+01   3.069161e-03   6.128869e-03   4709258
  2.864179e+00   1.334278e+01   3.070324e-03   6.121320e-03   4747352
  2.874805e+00   1.336922e+01   3.063655e-03   6.123873e-03   4771664
  2.885427e+00   1.342559e+01   3.068600e-03   6.123813e-03   4813532
  2.896058e+00   1.346161e+01   3.070437e-03   6.112300e-03   4852322
  2.906693e+00   1.348992e+01   3.069013e-03   6.105583e-03   4886480
  2.917320e+00   1.356068e+01   3.066289e-03   6.116749e-03   4917248
  2.927939e+00   1.357757e+01   3.065099e-03   6.096425e-03   4950828
  2.938569e+00   1.362172e+01   3.072788e-03   6.091295e-03   5000170
  2.949204e+00   1.366189e+01   3.066857e-03   6.096088e-03   5026952
  2.959825e+00   1.370620e+01   3.064676e-03   6.099360e-03   5058752
  2.970445e+00   1.375099e+01   3.067741e-03   6.089053e-03   5100722
  2.981076e+00   1.378093e+01   3.068979e-03   6.077829e-03   5140124
  2.991706e+00   1.381562e+01   3.067937e-03   6.074529e-03   5174072
  3.002335e+00   1.385484e+01   3.068928e-03   6.070771e-03   5211608
  3.012962e+00   1.388323e+01   3.067917e-03   6.066950e-03   5247794
  3.023589e+00   1.392401e+01   3.066908e-03   6.056151e-03   5284196
  3.034222e+00   1.397302e+01   3.071657e-03   6.052616e-03   5328800
