# power spectrum of delta
# redshift z=4.996894
# k              Pk             sigma(k)       sigma(Pk)      count
  7.830312e-03   1.043310e-05   1.198114e-03   2.031083e-06   18
  1.686348e-02   2.863740e-04   2.897918e-03   3.101482e-05   152
  2.725284e-02   1.045594e-03   3.060867e-03   4.848996e-05   416
  3.742835e-02   2.118611e-03   2.912555e-03   8.177558e-05   770
  4.808679e-02   3.567944e-03   3.119650e-03   1.006611e-04   1364
  5.876109e-02   5.284725e-03   3.054550e-03   1.215379e-04   1976
  6.939824e-02   7.818051e-03   3.112555e-03   1.504755e-04   2792
  7.984642e-02   9.967974e-03   2.971805e-03   1.724686e-04   3578
  9.038229e-02   1.183736e-02   3.049521e-03   1.750664e-04   4724
  1.011318e-01   1.365323e-02   3.134595e-03   1.786366e-04   6032
  1.117485e-01   1.599994e-02   3.016599e-03   1.936862e-04   7072
  1.222702e-01   1.925662e-02   3.056387e-03   2.124932e-04   8634
  1.329722e-01   2.288994e-02   3.095256e-03   2.268639e-04   10336
  1.436677e-01   2.511849e-02   3.082009e-03   2.266059e-04   11940
  1.541872e-01   2.653391e-02   3.021465e-03   2.312651e-04   13490
  1.647185e-01   2.846353e-02   3.054444e-03   2.249756e-04   15656
  1.754149e-01   3.100429e-02   3.102608e-03   2.336082e-04   18008
  1.860920e-01   3.466419e-02   3.069464e-03   2.456352e-04   19964
  1.966957e-01   3.773841e-02   3.066093e-03   2.526673e-04   22354
  2.072851e-01   3.965167e-02   3.030819e-03   2.539783e-04   24648
  2.179134e-01   4.146421e-02   3.083109e-03   2.496332e-04   27592
  2.285517e-01   4.327673e-02   3.075318e-03   2.464963e-04   30152
  2.391687e-01   4.586250e-02   3.069056e-03   2.517064e-04   33046
  2.497808e-01   4.965018e-02   3.053846e-03   2.643312e-04   35992
  2.604233e-01   5.257256e-02   3.074764e-03   2.651764e-04   39304
  2.710722e-01   5.582556e-02   3.082145e-03   2.688072e-04   42608
  2.817050e-01   5.659815e-02   3.058267e-03   2.673115e-04   45758
  2.923349e-01   5.862037e-02   3.072286e-03   2.653054e-04   49536
  3.029238e-01   6.119123e-02   3.039208e-03   2.705625e-04   52488
  3.135134e-01   6.421552e-02   3.084628e-03   2.707232e-04   57034
  3.241511e-01   6.564267e-02   3.061146e-03   2.664261e-04   60648
  3.347969e-01   6.889564e-02   3.076329e-03   2.722213e-04   65044
  3.454223e-01   7.175856e-02   3.057760e-03   2.727933e-04   68720
  3.560505e-01   7.341893e-02   3.078281e-03   2.702534e-04   73538
  3.667175e-01   7.544655e-02   3.076939e-03   2.694798e-04   78080
  3.773260e-01   7.853321e-02   3.039859e-03   2.746983e-04   81572
  3.879192e-01   8.064850e-02   3.081238e-03   2.734549e-04   87248
  3.985882e-01   8.281033e-02   3.084591e-03   2.729532e-04   92266
  4.092322e-01   8.536300e-02   3.063169e-03   2.750464e-04   96696
  4.198039e-01   8.757323e-02   3.037602e-03   2.773731e-04   100904
  4.303789e-01   8.934398e-02   3.065517e-03   2.760541e-04   107036
  4.410480e-01   9.173520e-02   3.089487e-03   2.722454e-04   113362
  4.517307e-01   9.398516e-02   3.072092e-03   2.744848e-04   118176
  4.623378e-01   9.706041e-02   3.054661e-03   2.785145e-04   122944
  4.729644e-01   9.924979e-02   3.083007e-03   2.748047e-04   129902
  4.836049e-01   1.005672e-01   3.061727e-03   2.741953e-04   134944
  4.942158e-01   1.032624e-01   3.064979e-03   2.753898e-04   140952
  5.048213e-01   1.049067e-01   3.064662e-03   2.758604e-04   147072
  5.154342e-01   1.073209e-01   3.060800e-03   2.737339e-04   153382
  5.260893e-01   1.093123e-01   3.082622e-03   2.731816e-04   160952
  5.367508e-01   1.115194e-01   3.070294e-03   2.721996e-04   166640
  5.473579e-01   1.137004e-01   3.057153e-03   2.759672e-04   172448
  5.579787e-01   1.161822e-01   3.077577e-03   2.724502e-04   180594
  5.686178e-01   1.185418e-01   3.060710e-03   2.740453e-04   186556
  5.792219e-01   1.203075e-01   3.063394e-03   2.743046e-04   193528
  5.898242e-01   1.231160e-01   3.060684e-03   2.765517e-04   200626
  6.004609e-01   1.244805e-01   3.076604e-03   2.738855e-04   209256
  6.111150e-01   1.271874e-01   3.069663e-03   2.736515e-04   216020
  6.217510e-01   1.297931e-01   3.075746e-03   2.753614e-04   223768
  6.323610e-01   1.312458e-01   3.055783e-03   2.744045e-04   230234
  6.429887e-01   1.333461e-01   3.074922e-03   2.728661e-04   239800
  6.536248e-01   1.344447e-01   3.063054e-03   2.716175e-04   246568
  6.642393e-01   1.379396e-01   3.068328e-03   2.739356e-04   254828
  6.748534e-01   1.395447e-01   3.064424e-03   2.710764e-04   263074
  6.854951e-01   1.420102e-01   3.071509e-03   2.725175e-04   272312
  6.961385e-01   1.437937e-01   3.070197e-03   2.713676e-04   280376
  7.067732e-01   1.456234e-01   3.071500e-03   2.721595e-04   288884
  7.174012e-01   1.475054e-01   3.068501e-03   2.709469e-04   297602
  7.280177e-01   1.495702e-01   3.057614e-03   2.709608e-04   305520
  7.386402e-01   1.517456e-01   3.075198e-03   2.709180e-04   315976
  7.492461e-01   1.532346e-01   3.052723e-03   2.709791e-04   322778
  7.598720e-01   1.569601e-01   3.080021e-03   2.710983e-04   335372
  7.705286e-01   1.574396e-01   3.068318e-03   2.700283e-04   343464
  7.811635e-01   1.599252e-01   3.070705e-03   2.682205e-04   352912
  7.917934e-01   1.620824e-01   3.070498e-03   2.693132e-04   362666
  8.024224e-01   1.643085e-01   3.063690e-03   2.697705e-04   371884
  8.130465e-01   1.664908e-01   3.069929e-03   2.702705e-04   382280
  8.236583e-01   1.687249e-01   3.060755e-03   2.694089e-04   390888
  8.342648e-01   1.695445e-01   3.067168e-03   2.667404e-04   402234
  8.448912e-01   1.716484e-01   3.064832e-03   2.664822e-04   412576
  8.555263e-01   1.734089e-01   3.071788e-03   2.656591e-04   423732
  8.661590e-01   1.758459e-01   3.068142e-03   2.675715e-04   433624
  8.767950e-01   1.774693e-01   3.072203e-03   2.656505e-04   445154
  8.874347e-01   1.792040e-01   3.069139e-03   2.665396e-04   455584
  8.980596e-01   1.809621e-01   3.064716e-03   2.652687e-04   465588
  9.086714e-01   1.829775e-01   3.065163e-03   2.647284e-04   476762
  9.193048e-01   1.849402e-01   3.073106e-03   2.642493e-04   489552
  9.299472e-01   1.873114e-01   3.069632e-03   2.650057e-04   500328
  9.405628e-01   1.886268e-01   3.059261e-03   2.646191e-04   509852
  9.511854e-01   1.906269e-01   3.074339e-03   2.628458e-04   524234
  9.618189e-01   1.933341e-01   3.061952e-03   2.644898e-04   534104
  9.724448e-01   1.943244e-01   3.070528e-03   2.641499e-04   547048
  9.830800e-01   1.968372e-01   3.073862e-03   2.632125e-04   559328
  9.937180e-01   1.989014e-01   3.070866e-03   2.639207e-04   571326
  1.004339e+00   2.003887e-01   3.060367e-03   2.630413e-04   581920
  1.014951e+00   2.022280e-01   3.064588e-03   2.625191e-04   594832
  1.025571e+00   2.036333e-01   3.068054e-03   2.613733e-04   608048
  1.036206e+00   2.060473e-01   3.070252e-03   2.608187e-04   621526
  1.046839e+00   2.076173e-01   3.066112e-03   2.614547e-04   633240
  1.057456e+00   2.087528e-01   3.064953e-03   2.594982e-04   645472
  1.068086e+00   2.122551e-01   3.075342e-03   2.613251e-04   660906
  1.078726e+00   2.130518e-01   3.067576e-03   2.603365e-04   672856
  1.089356e+00   2.150320e-01   3.067094e-03   2.606428e-04   685980
  1.099980e+00   2.172958e-01   3.067978e-03   2.595186e-04   699256
  1.110619e+00   2.179468e-01   3.074976e-03   2.578375e-04   714730
  1.121246e+00   2.202899e-01   3.059348e-03   2.582581e-04   725152
  1.131863e+00   2.222479e-01   3.067634e-03   2.589357e-04   740420
  1.142485e+00   2.241493e-01   3.069089e-03   2.585038e-04   754312
  1.153114e+00   2.258434e-01   3.069897e-03   2.581316e-04   769114
  1.163749e+00   2.275056e-01   3.069209e-03   2.564726e-04   783488
  1.174365e+00   2.294434e-01   3.058900e-03   2.573389e-04   794968
  1.184981e+00   2.316870e-01   3.070107e-03   2.580766e-04   812366
  1.195609e+00   2.328584e-01   3.065134e-03   2.555452e-04   825976
  1.206250e+00   2.353216e-01   3.075220e-03   2.557003e-04   843352
  1.216898e+00   2.365343e-01   3.073224e-03   2.549096e-04   857280
  1.227524e+00   2.377109e-01   3.063189e-03   2.553348e-04   869542
  1.238147e+00   2.401739e-01   3.070752e-03   2.550368e-04   887128
  1.248772e+00   2.407769e-01   3.063166e-03   2.541679e-04   900032
  1.259388e+00   2.432642e-01   3.067377e-03   2.541762e-04   916560
  1.270005e+00   2.445374e-01   3.061783e-03   2.535942e-04   930922
  1.280635e+00   2.466236e-01   3.071795e-03   2.538844e-04   949844
  1.291287e+00   2.479428e-01   3.076939e-03   2.524433e-04   966736
  1.301925e+00   2.498984e-01   3.065819e-03   2.526828e-04   978776
  1.312537e+00   2.517146e-01   3.064137e-03   2.523436e-04   994522
  1.323161e+00   2.531861e-01   3.068907e-03   2.524438e-04   1012420
  1.333794e+00   2.546963e-01   3.071598e-03   2.519053e-04   1029408
  1.344410e+00   2.562059e-01   3.058405e-03   2.515846e-04   1041658
  1.355032e+00   2.584202e-01   3.072381e-03   2.506682e-04   1063520
  1.365659e+00   2.604596e-01   3.060689e-03   2.514841e-04   1075808
  1.376294e+00   2.620846e-01   3.080019e-03   2.501114e-04   1098956
  1.386928e+00   2.631172e-01   3.061670e-03   2.497413e-04   1109810
  1.397545e+00   2.653000e-01   3.065288e-03   2.496879e-04   1128608
  1.408178e+00   2.666322e-01   3.073589e-03   2.488766e-04   1148264
  1.418813e+00   2.684734e-01   3.067917e-03   2.494159e-04   1163252
  1.429436e+00   2.695087e-01   3.067070e-03   2.482673e-04   1181042
  1.440060e+00   2.715473e-01   3.064325e-03   2.487559e-04   1197848
  1.450692e+00   2.727238e-01   3.073737e-03   2.473623e-04   1218848
  1.461323e+00   2.738434e-01   3.064859e-03   2.467913e-04   1232916
  1.471945e+00   2.762243e-01   3.068844e-03   2.477815e-04   1253002
  1.482566e+00   2.776795e-01   3.062284e-03   2.471616e-04   1268576
  1.493191e+00   2.796571e-01   3.071552e-03   2.466628e-04   1290128
  1.503822e+00   2.809406e-01   3.068342e-03   2.462020e-04   1307402
  1.514455e+00   2.816428e-01   3.069122e-03   2.451879e-04   1327028
  1.525083e+00   2.841574e-01   3.064970e-03   2.453542e-04   1343648
  1.535711e+00   2.859605e-01   3.070217e-03   2.447522e-04   1364096
  1.546341e+00   2.868820e-01   3.068950e-03   2.449728e-04   1382730
  1.556974e+00   2.884173e-01   3.068757e-03   2.438921e-04   1402164
  1.567604e+00   2.896062e-01   3.068159e-03   2.430868e-04   1420464
  1.578221e+00   2.913017e-01   3.063798e-03   2.435629e-04   1437368
  1.588847e+00   2.935009e-01   3.072142e-03   2.432439e-04   1461530
  1.599480e+00   2.942572e-01   3.065069e-03   2.422428e-04   1478264
  1.610108e+00   2.962521e-01   3.068902e-03   2.419065e-04   1499356
  1.620732e+00   2.973356e-01   3.065238e-03   2.416294e-04   1517016
  1.631360e+00   2.996418e-01   3.070849e-03   2.419715e-04   1540090
  1.641988e+00   3.008211e-01   3.065366e-03   2.412230e-04   1557360
  1.652609e+00   3.024404e-01   3.066926e-03   2.408933e-04   1577780
  1.663242e+00   3.041283e-01   3.075107e-03   2.407586e-04   1602578
  1.673875e+00   3.050917e-01   3.063542e-03   2.399961e-04   1617672
  1.684498e+00   3.068251e-01   3.069033e-03   2.400676e-04   1641016
  1.695122e+00   3.079910e-01   3.065080e-03   2.396048e-04   1659416
  1.705746e+00   3.097666e-01   3.068431e-03   2.391211e-04   1682670
  1.716382e+00   3.106214e-01   3.070690e-03   2.386689e-04   1705256
  1.727024e+00   3.122577e-01   3.071890e-03   2.382588e-04   1726312
  1.737645e+00   3.140089e-01   3.062639e-03   2.383248e-04   1741880
  1.748261e+00   3.154153e-01   3.067156e-03   2.369540e-04   1766454
  1.758897e+00   3.161476e-01   3.073105e-03   2.367809e-04   1791784
  1.769528e+00   3.178884e-01   3.063894e-03   2.369274e-04   1807712
  1.780139e+00   3.190153e-01   3.062775e-03   2.363625e-04   1829002
  1.790759e+00   3.201844e-01   3.067263e-03   2.354408e-04   1854216
  1.801400e+00   3.226282e-01   3.074631e-03   2.359346e-04   1880156
  1.812037e+00   3.232959e-01   3.068349e-03   2.349833e-04   1897568
  1.822663e+00   3.245759e-01   3.068475e-03   2.348216e-04   1920458
  1.833288e+00   3.258724e-01   3.065997e-03   2.338948e-04   1942208
  1.843915e+00   3.277226e-01   3.067813e-03   2.340842e-04   1965612
  1.854544e+00   3.288037e-01   3.069639e-03   2.341453e-04   1989000
  1.865168e+00   3.299613e-01   3.064465e-03   2.330595e-04   2009114
  1.875791e+00   3.309541e-01   3.067400e-03   2.325730e-04   2034464
  1.886424e+00   3.334865e-01   3.070174e-03   2.330787e-04   2058476
  1.897052e+00   3.342244e-01   3.068039e-03   2.323246e-04   2079648
  1.907673e+00   3.355906e-01   3.065891e-03   2.323966e-04   2102578
  1.918306e+00   3.365879e-01   3.070742e-03   2.311964e-04   2129928
  1.928942e+00   3.382032e-01   3.069733e-03   2.314107e-04   2152096
  1.939563e+00   3.390877e-01   3.062858e-03   2.306237e-04   2171142
  1.950185e+00   3.404122e-01   3.069150e-03   2.300757e-04   2200248
  1.960824e+00   3.415790e-01   3.071017e-03   2.298736e-04   2225216
  1.971460e+00   3.435218e-01   3.070942e-03   2.295610e-04   2248448
  1.982084e+00   3.443031e-01   3.064272e-03   2.292251e-04   2267942
  1.992710e+00   3.457276e-01   3.071051e-03   2.289939e-04   2298072
  2.003337e+00   3.464597e-01   3.064068e-03   2.282041e-04   2317272
  2.013961e+00   3.483718e-01   3.069747e-03   2.281456e-04   2345808
  2.024580e+00   3.491690e-01   3.062469e-03   2.275755e-04   2365650
  2.035206e+00   3.509676e-01   3.069930e-03   2.275235e-04   2396940
  2.045842e+00   3.507235e-01   3.069936e-03   2.262031e-04   2421272
  2.056473e+00   3.527312e-01   3.068399e-03   2.264890e-04   2444576
  2.067102e+00   3.538622e-01   3.069748e-03   2.260662e-04   2471490
  2.077728e+00   3.551532e-01   3.064854e-03   2.253502e-04   2493180
  2.088349e+00   3.565433e-01   3.068019e-03   2.255528e-04   2520952
  2.098972e+00   3.573977e-01   3.065319e-03   2.246004e-04   2544946
  2.109598e+00   3.592419e-01   3.068311e-03   2.245405e-04   2573856
  2.120230e+00   3.599381e-01   3.069026e-03   2.239541e-04   2600016
  2.130862e+00   3.614941e-01   3.069102e-03   2.235328e-04   2625484
  2.141490e+00   3.618139e-01   3.068080e-03   2.230730e-04   2651122
  2.152130e+00   3.632997e-01   3.074348e-03   2.228494e-04   2683488
  2.162754e+00   3.642368e-01   3.059466e-03   2.229247e-04   2696352
  2.173371e+00   3.659016e-01   3.071171e-03   2.223381e-04   2733020
  2.184002e+00   3.668674e-01   3.067530e-03   2.218314e-04   2757378
  2.194631e+00   3.676154e-01   3.067942e-03   2.215365e-04   2784864
  2.205259e+00   3.686248e-01   3.067811e-03   2.209407e-04   2811168
  2.215874e+00   3.701758e-01   3.061061e-03   2.206551e-04   2832274
  2.226505e+00   3.710347e-01   3.075611e-03   2.199961e-04   2873636
  2.237142e+00   3.720615e-01   3.064877e-03   2.196577e-04   2890496
  2.247766e+00   3.727810e-01   3.069851e-03   2.189037e-04   2921800
  2.258399e+00   3.736819e-01   3.071101e-03   2.181437e-04   2951298
  2.269032e+00   3.755007e-01   3.066274e-03   2.184477e-04   2975476
  2.279663e+00   3.768392e-01   3.071375e-03   2.179301e-04   3007728
  2.290285e+00   3.770418e-01   3.061886e-03   2.176824e-04   3025776
  2.300910e+00   3.781659e-01   3.072955e-03   2.167646e-04   3065762
  2.311540e+00   3.795768e-01   3.063208e-03   2.172258e-04   3084856
  2.322162e+00   3.806452e-01   3.068985e-03   2.165654e-04   3118044
  2.332782e+00   3.817694e-01   3.064319e-03   2.161003e-04   3141352
  2.343410e+00   3.823935e-01   3.072036e-03   2.155816e-04   3179274
  2.354046e+00   3.838371e-01   3.067682e-03   2.151318e-04   3204120
  2.364668e+00   3.846388e-01   3.063610e-03   2.151477e-04   3227900
  2.375288e+00   3.856004e-01   3.068722e-03   2.145013e-04   3262394
  2.385925e+00   3.867187e-01   3.071814e-03   2.136348e-04   3295680
  2.396559e+00   3.876316e-01   3.067166e-03   2.138755e-04   3319560
  2.407184e+00   3.889173e-01   3.068070e-03   2.134196e-04   3348972
  2.417810e+00   3.895785e-01   3.068540e-03   2.130976e-04   3379722
  2.428441e+00   3.906236e-01   3.068348e-03   2.126739e-04   3410720
  2.439075e+00   3.913618e-01   3.069517e-03   2.118884e-04   3441504
  2.449697e+00   3.921457e-01   3.063301e-03   2.115994e-04   3463624
  2.460317e+00   3.930957e-01   3.068043e-03   2.111619e-04   3499790
  2.470951e+00   3.944386e-01   3.070702e-03   2.111801e-04   3533560
  2.481588e+00   3.953946e-01   3.069830e-03   2.105845e-04   3561920
  2.492209e+00   3.961757e-01   3.064208e-03   2.102849e-04   3585208
  2.502830e+00   3.975114e-01   3.069185e-03   2.098879e-04   3622518
  2.513468e+00   3.981151e-01   3.072344e-03   2.093788e-04   3657584
  2.524094e+00   3.989715e-01   3.062507e-03   2.094874e-04   3676440
  2.534707e+00   3.998140e-01   3.065232e-03   2.086986e-04   3711282
  2.545334e+00   4.003228e-01   3.068763e-03   2.076663e-04   3747696
  2.555965e+00   4.015077e-01   3.067225e-03   2.076736e-04   3776188
  2.566601e+00   4.028675e-01   3.074483e-03   2.072999e-04   3815304
  2.577232e+00   4.038503e-01   3.064660e-03   2.074156e-04   3835370
  2.587856e+00   4.045357e-01   3.068926e-03   2.065535e-04   3873424
  2.598487e+00   4.053924e-01   3.067978e-03   2.064508e-04   3903420
  2.609117e+00   4.059595e-01   3.070036e-03   2.056847e-04   3937624
  2.619745e+00   4.070919e-01   3.066011e-03   2.057123e-04   3965658
  2.630375e+00   4.075233e-01   3.069802e-03   2.049443e-04   4002984
  2.641001e+00   4.078779e-01   3.065136e-03   2.044122e-04   4027928
  2.651616e+00   4.087179e-01   3.064941e-03   2.040101e-04   4059844
  2.662241e+00   4.103941e-01   3.069945e-03   2.036695e-04   4100338
  2.672876e+00   4.111014e-01   3.069128e-03   2.035251e-04   4132264
  2.683506e+00   4.119397e-01   3.068474e-03   2.032442e-04   4163216
  2.694131e+00   4.126293e-01   3.066146e-03   2.028995e-04   4193350
  2.704761e+00   4.131351e-01   3.071068e-03   2.021607e-04   4234456
  2.715390e+00   4.144211e-01   3.064079e-03   2.019304e-04   4257264
  2.726012e+00   4.148771e-01   3.069774e-03   2.014251e-04   4297352
  2.736640e+00   4.149891e-01   3.067495e-03   2.011091e-04   4328642
  2.747272e+00   4.164259e-01   3.070663e-03   2.002263e-04   4367948
  2.757895e+00   4.174975e-01   3.061799e-03   2.003730e-04   4388384
  2.768519e+00   4.179579e-01   3.072247e-03   1.999529e-04   4436648
  2.779154e+00   4.187812e-01   3.067997e-03   1.995752e-04   4465658
  2.789787e+00   4.196527e-01   3.069677e-03   1.993524e-04   4502948
  2.800413e+00   4.201483e-01   3.064787e-03   1.990915e-04   4528880
  2.811033e+00   4.215328e-01   3.067181e-03   1.987987e-04   4566290
  2.821663e+00   4.219313e-01   3.070655e-03   1.981555e-04   4606856
  2.832293e+00   4.229100e-01   3.066552e-03   1.979137e-04   4635380
  2.842916e+00   4.234619e-01   3.067131e-03   1.974922e-04   4670384
  2.853543e+00   4.239700e-01   3.069161e-03   1.970019e-04   4709258
  2.864179e+00   4.242586e-01   3.070324e-03   1.962811e-04   4747352
  2.874805e+00   4.252064e-01   3.063655e-03   1.962537e-04   4771664
  2.885427e+00   4.256912e-01   3.068600e-03   1.955322e-04   4813532
  2.896058e+00   4.267553e-01   3.070437e-03   1.955116e-04   4852322
  2.906693e+00   4.277829e-01   3.069013e-03   1.951383e-04   4886480
  2.917320e+00   4.276699e-01   3.066289e-03   1.944103e-04   4917248
  2.927939e+00   4.283814e-01   3.065099e-03   1.941807e-04   4950828
  2.938569e+00   4.293128e-01   3.072788e-03   1.934595e-04   5000170
  2.949204e+00   4.299854e-01   3.066857e-03   1.934503e-04   5026952
  2.959825e+00   4.305554e-01   3.064676e-03   1.930158e-04   5058752
  2.970445e+00   4.316303e-01   3.067741e-03   1.926479e-04   5100722
  2.981076e+00   4.317906e-01   3.068979e-03   1.919439e-04   5140124
  2.991706e+00   4.329480e-01   3.067937e-03   1.919209e-04   5174072
  3.002335e+00   4.334750e-01   3.068928e-03   1.915260e-04   5211608
  3.012962e+00   4.341437e-01   3.067917e-03   1.912470e-04   5247794
  3.023589e+00   4.343828e-01   3.066908e-03   1.907791e-04   5284196
  3.034222e+00   4.350018e-01   3.071657e-03   1.902397e-04   5328800
