# power spectrum of delta
# redshift z=0.697642
# k              Pk             sigma(k)       sigma(Pk)      count
  7.830312e-03   1.114471e-04   1.198114e-03   2.172731e-05   18
  1.686348e-02   3.076227e-03   2.897918e-03   3.318865e-04   152
  2.725284e-02   1.130210e-02   3.060867e-03   5.248180e-04   416
  3.742835e-02   2.280861e-02   2.912555e-03   8.785427e-04   770
  4.808679e-02   3.812807e-02   3.119650e-03   1.081681e-03   1364
  5.876109e-02   5.688011e-02   3.054550e-03   1.303766e-03   1976
  6.939824e-02   8.360979e-02   3.112555e-03   1.609355e-03   2792
  7.984642e-02   1.073469e-01   2.971805e-03   1.818498e-03   3578
  9.038229e-02   1.268205e-01   3.049521e-03   1.866020e-03   4724
  1.011318e-01   1.484451e-01   3.134595e-03   1.930869e-03   6032
  1.117485e-01   1.726053e-01   3.016599e-03   2.121367e-03   7072
  1.222702e-01   2.109075e-01   3.056387e-03   2.330277e-03   8634
  1.329722e-01   2.487874e-01   3.095256e-03   2.498671e-03   10336
  1.436677e-01   2.771560e-01   3.082009e-03   2.501828e-03   11940
  1.541872e-01   2.989318e-01   3.021465e-03   2.619431e-03   13490
  1.647185e-01   3.303296e-01   3.054444e-03   2.617319e-03   15656
  1.754149e-01   3.600558e-01   3.102608e-03   2.674466e-03   18008
  1.860920e-01   4.022741e-01   3.069464e-03   2.842933e-03   19964
  1.966957e-01   4.406294e-01   3.066093e-03   2.968333e-03   22354
  2.072851e-01   4.663191e-01   3.030819e-03   2.957666e-03   24648
  2.179134e-01   4.991402e-01   3.083109e-03   2.970435e-03   27592
  2.285517e-01   5.403162e-01   3.075318e-03   3.133098e-03   30152
  2.391687e-01   5.756864e-01   3.069056e-03   3.218410e-03   33046
  2.497808e-01   6.222392e-01   3.053846e-03   3.286867e-03   35992
  2.604233e-01   6.693214e-01   3.074764e-03   3.399509e-03   39304
  2.710722e-01   7.110510e-01   3.082145e-03   3.431760e-03   42608
  2.817050e-01   7.518569e-01   3.058267e-03   3.515129e-03   45758
  2.923349e-01   7.863100e-01   3.072286e-03   3.556587e-03   49536
  3.029238e-01   8.331238e-01   3.039208e-03   3.633259e-03   52488
  3.135134e-01   8.926644e-01   3.084628e-03   3.730093e-03   57034
  3.241511e-01   9.185655e-01   3.061146e-03   3.711580e-03   60648
  3.347969e-01   9.840842e-01   3.076329e-03   3.864883e-03   65044
  3.454223e-01   1.034574e+00   3.057760e-03   3.917152e-03   68720
  3.560505e-01   1.076374e+00   3.078281e-03   3.958437e-03   73538
  3.667175e-01   1.126893e+00   3.076939e-03   4.027938e-03   78080
  3.773260e-01   1.189027e+00   3.039859e-03   4.168037e-03   81572
  3.879192e-01   1.243799e+00   3.081238e-03   4.250285e-03   87248
  3.985882e-01   1.293249e+00   3.084591e-03   4.249042e-03   92266
  4.092322e-01   1.354408e+00   3.063169e-03   4.369701e-03   96696
  4.198039e-01   1.401419e+00   3.037602e-03   4.456578e-03   100904
  4.303789e-01   1.470592e+00   3.065517e-03   4.480557e-03   107036
  4.410480e-01   1.529565e+00   3.089487e-03   4.537712e-03   113362
  4.517307e-01   1.591801e+00   3.072092e-03   4.605894e-03   118176
  4.623378e-01   1.654141e+00   3.054661e-03   4.733490e-03   122944
  4.729644e-01   1.718998e+00   3.083007e-03   4.815474e-03   129902
  4.836049e-01   1.785146e+00   3.061727e-03   4.839045e-03   134944
  4.942158e-01   1.852617e+00   3.064979e-03   4.946685e-03   140952
  5.048213e-01   1.919520e+00   3.064662e-03   5.022887e-03   147072
  5.154342e-01   1.986466e+00   3.060800e-03   5.080107e-03   153382
  5.260893e-01   2.060925e+00   3.082622e-03   5.118200e-03   160952
  5.367508e-01   2.112719e+00   3.070294e-03   5.197783e-03   166640
  5.473579e-01   2.207418e+00   3.057153e-03   5.312052e-03   172448
  5.579787e-01   2.268803e+00   3.077577e-03   5.401284e-03   180594
  5.686178e-01   2.356536e+00   3.060710e-03   5.460589e-03   186556
  5.792219e-01   2.420903e+00   3.063394e-03   5.501487e-03   193528
  5.898242e-01   2.506496e+00   3.060684e-03   5.578688e-03   200626
  6.004609e-01   2.574371e+00   3.076604e-03   5.635160e-03   209256
  6.111150e-01   2.658266e+00   3.069663e-03   5.739743e-03   216020
  6.217510e-01   2.759768e+00   3.075746e-03   5.828557e-03   223768
  6.323610e-01   2.835862e+00   3.055783e-03   5.911334e-03   230234
  6.429887e-01   2.929711e+00   3.074922e-03   5.962797e-03   239800
  6.536248e-01   3.001135e+00   3.063054e-03   6.037946e-03   246568
  6.642393e-01   3.110792e+00   3.068328e-03   6.162585e-03   254828
  6.748534e-01   3.170376e+00   3.064424e-03   6.176195e-03   263074
  6.854951e-01   3.270359e+00   3.071509e-03   6.262490e-03   272312
  6.961385e-01   3.370665e+00   3.070197e-03   6.343068e-03   280376
  7.067732e-01   3.464521e+00   3.071500e-03   6.440513e-03   288884
  7.174012e-01   3.549218e+00   3.068501e-03   6.482593e-03   297602
  7.280177e-01   3.657388e+00   3.057614e-03   6.591628e-03   305520
  7.386402e-01   3.750278e+00   3.075198e-03   6.672573e-03   315976
  7.492461e-01   3.835389e+00   3.052723e-03   6.750171e-03   322778
  7.598720e-01   3.950302e+00   3.080021e-03   6.814961e-03   335372
  7.705286e-01   4.034821e+00   3.068318e-03   6.895244e-03   343464
  7.811635e-01   4.139295e+00   3.070705e-03   6.985854e-03   352912
  7.917934e-01   4.251443e+00   3.070498e-03   7.061429e-03   362666
  8.024224e-01   4.330666e+00   3.063690e-03   7.124436e-03   371884
  8.130465e-01   4.462116e+00   3.069929e-03   7.212365e-03   382280
  8.236583e-01   4.573341e+00   3.060755e-03   7.327790e-03   390888
  8.342648e-01   4.688758e+00   3.067168e-03   7.392293e-03   402234
  8.448912e-01   4.789327e+00   3.064832e-03   7.456471e-03   412576
  8.555263e-01   4.883583e+00   3.071788e-03   7.510613e-03   423732
  8.661590e-01   4.999612e+00   3.068142e-03   7.584570e-03   433624
  8.767950e-01   5.120795e+00   3.072203e-03   7.682954e-03   445154
  8.874347e-01   5.239570e+00   3.069139e-03   7.772438e-03   455584
  8.980596e-01   5.333153e+00   3.064716e-03   7.805070e-03   465588
  9.086714e-01   5.448620e+00   3.065163e-03   7.885377e-03   476762
  9.193048e-01   5.582192e+00   3.073106e-03   7.971735e-03   489552
  9.299472e-01   5.689430e+00   3.069632e-03   8.037523e-03   500328
  9.405628e-01   5.813030e+00   3.059261e-03   8.155523e-03   509852
  9.511854e-01   5.937790e+00   3.074339e-03   8.211280e-03   524234
  9.618189e-01   6.060055e+00   3.061952e-03   8.276370e-03   534104
  9.724448e-01   6.186901e+00   3.070528e-03   8.371511e-03   547048
  9.830800e-01   6.303637e+00   3.073862e-03   8.421893e-03   559328
  9.937180e-01   6.428182e+00   3.070866e-03   8.520856e-03   571326
  1.004339e+00   6.532293e+00   3.060367e-03   8.587048e-03   581920
  1.014951e+00   6.688730e+00   3.064588e-03   8.679326e-03   594832
  1.025571e+00   6.771775e+00   3.068054e-03   8.698203e-03   608048
  1.036206e+00   6.962258e+00   3.070252e-03   8.837979e-03   621526
  1.046839e+00   7.078310e+00   3.066112e-03   8.916920e-03   633240
  1.057456e+00   7.201069e+00   3.064953e-03   8.980829e-03   645472
  1.068086e+00   7.323474e+00   3.075342e-03   9.002951e-03   660906
  1.078726e+00   7.445111e+00   3.067576e-03   9.086639e-03   672856
  1.089356e+00   7.579404e+00   3.067094e-03   9.173180e-03   685980
  1.099980e+00   7.717543e+00   3.067978e-03   9.227877e-03   699256
  1.110619e+00   7.829251e+00   3.074976e-03   9.266753e-03   714730
  1.121246e+00   7.985006e+00   3.059348e-03   9.394670e-03   725152
  1.131863e+00   8.123590e+00   3.067634e-03   9.422472e-03   740420
  1.142485e+00   8.261474e+00   3.069089e-03   9.530772e-03   754312
  1.153114e+00   8.403431e+00   3.069897e-03   9.574999e-03   769114
  1.163749e+00   8.520055e+00   3.069209e-03   9.594142e-03   783488
  1.174365e+00   8.672050e+00   3.058900e-03   9.743177e-03   794968
  1.184981e+00   8.799664e+00   3.070107e-03   9.765681e-03   812366
  1.195609e+00   8.928945e+00   3.065134e-03   9.814290e-03   825976
  1.206250e+00   9.078517e+00   3.075220e-03   9.903061e-03   843352
  1.216898e+00   9.216435e+00   3.073224e-03   9.937867e-03   857280
  1.227524e+00   9.379340e+00   3.063189e-03   1.006339e-02   869542
  1.238147e+00   9.500886e+00   3.070752e-03   1.008927e-02   887128
  1.248772e+00   9.687250e+00   3.063166e-03   1.020742e-02   900032
  1.259388e+00   9.782309e+00   3.067377e-03   1.023336e-02   916560
  1.270005e+00   9.939377e+00   3.061783e-03   1.025829e-02   930922
  1.280635e+00   1.007970e+01   3.071795e-03   1.034281e-02   949844
  1.291287e+00   1.023563e+01   3.076939e-03   1.041321e-02   966736
  1.301925e+00   1.038290e+01   3.065819e-03   1.050446e-02   978776
  1.312537e+00   1.052838e+01   3.064137e-03   1.058656e-02   994522
  1.323161e+00   1.064226e+01   3.068907e-03   1.057004e-02   1012420
  1.333794e+00   1.080971e+01   3.071598e-03   1.065909e-02   1029408
  1.344410e+00   1.097368e+01   3.058405e-03   1.073624e-02   1041658
  1.355032e+00   1.109548e+01   3.072381e-03   1.075457e-02   1063520
  1.365659e+00   1.126789e+01   3.060689e-03   1.086290e-02   1075808
  1.376294e+00   1.141222e+01   3.080019e-03   1.090216e-02   1098956
  1.386928e+00   1.156589e+01   3.061670e-03   1.096826e-02   1109810
  1.397545e+00   1.169520e+01   3.065288e-03   1.099143e-02   1128608
  1.408178e+00   1.184730e+01   3.073589e-03   1.106532e-02   1148264
  1.418813e+00   1.198577e+01   3.067917e-03   1.112224e-02   1163252
  1.429436e+00   1.215879e+01   3.067070e-03   1.116420e-02   1181042
  1.440060e+00   1.228773e+01   3.064325e-03   1.123577e-02   1197848
  1.450692e+00   1.245908e+01   3.073737e-03   1.126959e-02   1218848
  1.461323e+00   1.258927e+01   3.064859e-03   1.134769e-02   1232916
  1.471945e+00   1.276147e+01   3.068844e-03   1.140832e-02   1253002
  1.482566e+00   1.288576e+01   3.062284e-03   1.144873e-02   1268576
  1.493191e+00   1.303966e+01   3.071552e-03   1.147515e-02   1290128
  1.503822e+00   1.318976e+01   3.068342e-03   1.152023e-02   1307402
  1.514455e+00   1.334096e+01   3.069122e-03   1.159240e-02   1327028
  1.525083e+00   1.350286e+01   3.064970e-03   1.166477e-02   1343648
  1.535711e+00   1.362953e+01   3.070217e-03   1.166230e-02   1364096
  1.546341e+00   1.381505e+01   3.068950e-03   1.174840e-02   1382730
  1.556974e+00   1.394910e+01   3.068757e-03   1.180703e-02   1402164
  1.567604e+00   1.409442e+01   3.068159e-03   1.185179e-02   1420464
  1.578221e+00   1.424139e+01   3.063798e-03   1.188341e-02   1437368
  1.588847e+00   1.438300e+01   3.072142e-03   1.192090e-02   1461530
  1.599480e+00   1.455427e+01   3.065069e-03   1.197477e-02   1478264
  1.610108e+00   1.467414e+01   3.068902e-03   1.196775e-02   1499356
  1.620732e+00   1.483900e+01   3.065238e-03   1.206391e-02   1517016
  1.631360e+00   1.500715e+01   3.070849e-03   1.208911e-02   1540090
  1.641988e+00   1.510182e+01   3.065366e-03   1.208410e-02   1557360
  1.652609e+00   1.530881e+01   3.066926e-03   1.220740e-02   1577780
  1.663242e+00   1.542395e+01   3.075107e-03   1.220595e-02   1602578
  1.673875e+00   1.556499e+01   3.063542e-03   1.222549e-02   1617672
  1.684498e+00   1.572500e+01   3.069033e-03   1.227532e-02   1641016
  1.695122e+00   1.585889e+01   3.065080e-03   1.230454e-02   1659416
  1.705746e+00   1.599275e+01   3.068431e-03   1.233696e-02   1682670
  1.716382e+00   1.617686e+01   3.070690e-03   1.237411e-02   1705256
  1.727024e+00   1.631465e+01   3.071890e-03   1.242787e-02   1726312
  1.737645e+00   1.648366e+01   3.062639e-03   1.249963e-02   1741880
  1.748261e+00   1.656962e+01   3.067156e-03   1.246131e-02   1766454
  1.758897e+00   1.672334e+01   3.073105e-03   1.250488e-02   1791784
  1.769528e+00   1.690884e+01   3.063894e-03   1.258816e-02   1807712
  1.780139e+00   1.702838e+01   3.062775e-03   1.259911e-02   1829002
  1.790759e+00   1.721483e+01   3.067263e-03   1.263633e-02   1854216
  1.801400e+00   1.731822e+01   3.074631e-03   1.262907e-02   1880156
  1.812037e+00   1.749227e+01   3.068349e-03   1.268229e-02   1897568
  1.822663e+00   1.764252e+01   3.068475e-03   1.269061e-02   1920458
  1.833288e+00   1.777946e+01   3.065997e-03   1.277563e-02   1942208
  1.843915e+00   1.789819e+01   3.067813e-03   1.276995e-02   1965612
  1.854544e+00   1.803001e+01   3.069639e-03   1.280185e-02   1989000
  1.865168e+00   1.819259e+01   3.064465e-03   1.282010e-02   2009114
  1.875791e+00   1.833048e+01   3.067400e-03   1.285261e-02   2034464
  1.886424e+00   1.844869e+01   3.070174e-03   1.288985e-02   2058476
  1.897052e+00   1.859040e+01   3.068039e-03   1.288442e-02   2079648
  1.907673e+00   1.871352e+01   3.065891e-03   1.289572e-02   2102578
  1.918306e+00   1.887636e+01   3.070742e-03   1.294231e-02   2129928
  1.928942e+00   1.899024e+01   3.069733e-03   1.293845e-02   2152096
  1.939563e+00   1.915719e+01   3.062858e-03   1.299155e-02   2171142
  1.950185e+00   1.930013e+01   3.069150e-03   1.300745e-02   2200248
  1.960824e+00   1.941533e+01   3.071017e-03   1.301540e-02   2225216
  1.971460e+00   1.955945e+01   3.070942e-03   1.304991e-02   2248448
  1.982084e+00   1.969571e+01   3.064272e-03   1.305327e-02   2267942
  1.992710e+00   1.984029e+01   3.071051e-03   1.308280e-02   2298072
  2.003337e+00   1.991505e+01   3.064068e-03   1.309250e-02   2317272
  2.013961e+00   2.008960e+01   3.069747e-03   1.311288e-02   2345808
  2.024580e+00   2.023548e+01   3.062469e-03   1.316141e-02   2365650
  2.035206e+00   2.031454e+01   3.069930e-03   1.312283e-02   2396940
  2.045842e+00   2.048621e+01   3.069936e-03   1.318186e-02   2421272
  2.056473e+00   2.058713e+01   3.068399e-03   1.316586e-02   2444576
  2.067102e+00   2.072433e+01   3.069748e-03   1.318182e-02   2471490
  2.077728e+00   2.085967e+01   3.064854e-03   1.320803e-02   2493180
  2.088349e+00   2.100391e+01   3.068019e-03   1.322255e-02   2520952
  2.098972e+00   2.107457e+01   3.065319e-03   1.321797e-02   2544946
  2.109598e+00   2.124269e+01   3.068311e-03   1.322789e-02   2573856
  2.120230e+00   2.137266e+01   3.069026e-03   1.325787e-02   2600016
  2.130862e+00   2.147704e+01   3.069102e-03   1.326940e-02   2625484
  2.141490e+00   2.158675e+01   3.068080e-03   1.325621e-02   2651122
  2.152130e+00   2.173024e+01   3.074348e-03   1.326984e-02   2683488
  2.162754e+00   2.184824e+01   3.059466e-03   1.330524e-02   2696352
  2.173371e+00   2.193987e+01   3.071171e-03   1.327395e-02   2733020
  2.184002e+00   2.204390e+01   3.067530e-03   1.326959e-02   2757378
  2.194631e+00   2.222035e+01   3.067942e-03   1.331491e-02   2784864
  2.205259e+00   2.233294e+01   3.067811e-03   1.333573e-02   2811168
  2.215874e+00   2.244129e+01   3.061061e-03   1.335152e-02   2832274
  2.226505e+00   2.255657e+01   3.075611e-03   1.330131e-02   2873636
  2.237142e+00   2.267223e+01   3.064877e-03   1.331882e-02   2890496
  2.247766e+00   2.273200e+01   3.069851e-03   1.329621e-02   2921800
  2.258399e+00   2.287765e+01   3.071101e-03   1.332439e-02   2951298
  2.269032e+00   2.298326e+01   3.066274e-03   1.331008e-02   2975476
  2.279663e+00   2.309532e+01   3.071375e-03   1.331080e-02   3007728
  2.290285e+00   2.321320e+01   3.061886e-03   1.333787e-02   3025776
  2.300910e+00   2.331892e+01   3.072955e-03   1.331781e-02   3065762
  2.311540e+00   2.342489e+01   3.063208e-03   1.335362e-02   3084856
  2.322162e+00   2.352396e+01   3.068985e-03   1.333131e-02   3118044
  2.332782e+00   2.365141e+01   3.064319e-03   1.334899e-02   3141352
  2.343410e+00   2.377288e+01   3.072036e-03   1.332926e-02   3179274
  2.354046e+00   2.386662e+01   3.067682e-03   1.332732e-02   3204120
  2.364668e+00   2.393192e+01   3.063610e-03   1.331102e-02   3227900
  2.375288e+00   2.404086e+01   3.068722e-03   1.331096e-02   3262394
  2.385925e+00   2.412763e+01   3.071814e-03   1.328285e-02   3295680
  2.396559e+00   2.424525e+01   3.067166e-03   1.330284e-02   3319560
  2.407184e+00   2.432509e+01   3.068070e-03   1.329935e-02   3348972
  2.417810e+00   2.444767e+01   3.068540e-03   1.330550e-02   3379722
  2.428441e+00   2.454445e+01   3.068348e-03   1.329211e-02   3410720
  2.439075e+00   2.462130e+01   3.069517e-03   1.327867e-02   3441504
  2.449697e+00   2.473686e+01   3.063301e-03   1.330566e-02   3463624
  2.460317e+00   2.482232e+01   3.068043e-03   1.325041e-02   3499790
  2.470951e+00   2.492398e+01   3.070702e-03   1.324618e-02   3533560
  2.481588e+00   2.499429e+01   3.069830e-03   1.323486e-02   3561920
  2.492209e+00   2.508851e+01   3.064208e-03   1.326076e-02   3585208
  2.502830e+00   2.519855e+01   3.069185e-03   1.324671e-02   3622518
  2.513468e+00   2.523371e+01   3.072344e-03   1.318801e-02   3657584
  2.524094e+00   2.532968e+01   3.062507e-03   1.320902e-02   3676440
  2.534707e+00   2.544857e+01   3.065232e-03   1.320150e-02   3711282
  2.545334e+00   2.552865e+01   3.068763e-03   1.318667e-02   3747696
  2.555965e+00   2.561472e+01   3.067225e-03   1.318026e-02   3776188
  2.566601e+00   2.567611e+01   3.074483e-03   1.314508e-02   3815304
  2.577232e+00   2.575899e+01   3.064660e-03   1.315149e-02   3835370
  2.587856e+00   2.586801e+01   3.068926e-03   1.313396e-02   3873424
  2.598487e+00   2.589868e+01   3.067978e-03   1.309652e-02   3903420
  2.609117e+00   2.599468e+01   3.070036e-03   1.311404e-02   3937624
  2.619745e+00   2.606032e+01   3.066011e-03   1.309173e-02   3965658
  2.630375e+00   2.616903e+01   3.069802e-03   1.308646e-02   4002984
  2.641001e+00   2.623384e+01   3.065136e-03   1.306576e-02   4027928
  2.651616e+00   2.628273e+01   3.064941e-03   1.304416e-02   4059844
  2.662241e+00   2.638558e+01   3.069945e-03   1.303106e-02   4100338
  2.672876e+00   2.644242e+01   3.069128e-03   1.301978e-02   4132264
  2.683506e+00   2.653299e+01   3.068474e-03   1.299329e-02   4163216
  2.694131e+00   2.656488e+01   3.066146e-03   1.296898e-02   4193350
  2.704761e+00   2.666982e+01   3.071068e-03   1.294945e-02   4234456
  2.715390e+00   2.671983e+01   3.064079e-03   1.295070e-02   4257264
  2.726012e+00   2.679273e+01   3.069774e-03   1.294180e-02   4297352
  2.736640e+00   2.686661e+01   3.067495e-03   1.292319e-02   4328642
  2.747272e+00   2.693323e+01   3.070663e-03   1.287344e-02   4367948
  2.757895e+00   2.700069e+01   3.061799e-03   1.289039e-02   4388384
  2.768519e+00   2.707936e+01   3.072247e-03   1.284528e-02   4436648
  2.779154e+00   2.711831e+01   3.067997e-03   1.282231e-02   4465658
  2.789787e+00   2.718622e+01   3.069677e-03   1.282846e-02   4502948
  2.800413e+00   2.724766e+01   3.064787e-03   1.281551e-02   4528880
  2.811033e+00   2.728952e+01   3.067181e-03   1.278054e-02   4566290
  2.821663e+00   2.739999e+01   3.070655e-03   1.276169e-02   4606856
  2.832293e+00   2.745518e+01   3.066552e-03   1.276868e-02   4635380
  2.842916e+00   2.747572e+01   3.067131e-03   1.272133e-02   4670384
  2.853543e+00   2.752973e+01   3.069161e-03   1.267047e-02   4709258
  2.864179e+00   2.757650e+01   3.070324e-03   1.267287e-02   4747352
  2.874805e+00   2.765868e+01   3.063655e-03   1.266299e-02   4771664
  2.885427e+00   2.769219e+01   3.068600e-03   1.262775e-02   4813532
  2.896058e+00   2.770755e+01   3.070437e-03   1.258908e-02   4852322
  2.906693e+00   2.778319e+01   3.069013e-03   1.257445e-02   4886480
  2.917320e+00   2.784720e+01   3.066289e-03   1.255249e-02   4917248
  2.927939e+00   2.787644e+01   3.065099e-03   1.253304e-02   4950828
  2.938569e+00   2.793284e+01   3.072788e-03   1.249246e-02   5000170
  2.949204e+00   2.796557e+01   3.066857e-03   1.248402e-02   5026952
  2.959825e+00   2.798942e+01   3.064676e-03   1.244261e-02   5058752
  2.970445e+00   2.808820e+01   3.067741e-03   1.241046e-02   5100722
  2.981076e+00   2.811096e+01   3.068979e-03   1.238827e-02   5140124
  2.991706e+00   2.815648e+01   3.067937e-03   1.238828e-02   5174072
  3.002335e+00   2.818655e+01   3.068928e-03   1.234908e-02   5211608
  3.012962e+00   2.820447e+01   3.067917e-03   1.231943e-02   5247794
  3.023589e+00   2.827128e+01   3.066908e-03   1.230393e-02   5284196
  3.034222e+00   2.828676e+01   3.071657e-03   1.224894e-02   5328800
