# power spectrum of delta_N
# redshift z=1.598923
# k              Pk             sigma(k)       sigma(Pk)      count
  7.830312e-03   5.335840e-05   1.198114e-03   1.038307e-05   18
  1.686348e-02   1.459152e-03   2.897918e-03   1.576676e-04   152
  2.725284e-02   5.342022e-03   3.060867e-03   2.479028e-04   416
  3.742835e-02   1.080057e-02   2.912555e-03   4.163982e-04   770
  4.808679e-02   1.811323e-02   3.119650e-03   5.126013e-04   1364
  5.876109e-02   2.692990e-02   3.054550e-03   6.185420e-04   1976
  6.939824e-02   3.971356e-02   3.112555e-03   7.642541e-04   2792
  7.984642e-02   5.083104e-02   2.971805e-03   8.692850e-04   3578
  9.038229e-02   6.017456e-02   3.049521e-03   8.868376e-04   4724
  1.011318e-01   6.986674e-02   3.134595e-03   9.135425e-04   6032
  1.117485e-01   8.155450e-02   3.016599e-03   9.966691e-04   7072
  1.222702e-01   9.900457e-02   3.056387e-03   1.093864e-03   8634
  1.329722e-01   1.171839e-01   3.095256e-03   1.168584e-03   10336
  1.436677e-01   1.294381e-01   3.082009e-03   1.168354e-03   11940
  1.541872e-01   1.382183e-01   3.021465e-03   1.209666e-03   13490
  1.647185e-01   1.504462e-01   3.054444e-03   1.193236e-03   15656
  1.754149e-01   1.638860e-01   3.102608e-03   1.225863e-03   18008
  1.860920e-01   1.831647e-01   3.069464e-03   1.292516e-03   19964
  1.966957e-01   1.998289e-01   3.066093e-03   1.343989e-03   22354
  2.072851e-01   2.106656e-01   3.030819e-03   1.343714e-03   24648
  2.179134e-01   2.230539e-01   3.083109e-03   1.336519e-03   27592
  2.285517e-01   2.368545e-01   3.075318e-03   1.361384e-03   30152
  2.391687e-01   2.520309e-01   3.069056e-03   1.394838e-03   33046
  2.497808e-01   2.729653e-01   3.053846e-03   1.445661e-03   35992
  2.604233e-01   2.909350e-01   3.074764e-03   1.474250e-03   39304
  2.710722e-01   3.096991e-01   3.082145e-03   1.493640e-03   42608
  2.817050e-01   3.212480e-01   3.058267e-03   1.507769e-03   45758
  2.923349e-01   3.335829e-01   3.072286e-03   1.517156e-03   49536
  3.029238e-01   3.512956e-01   3.039208e-03   1.536333e-03   52488
  3.135134e-01   3.737289e-01   3.084628e-03   1.569668e-03   57034
  3.241511e-01   3.818691e-01   3.061146e-03   1.548778e-03   60648
  3.347969e-01   4.042269e-01   3.076329e-03   1.587947e-03   65044
  3.454223e-01   4.239335e-01   3.057760e-03   1.607064e-03   68720
  3.560505e-01   4.367580e-01   3.078281e-03   1.608257e-03   73538
  3.667175e-01   4.546957e-01   3.076939e-03   1.629446e-03   78080
  3.773260e-01   4.759822e-01   3.039859e-03   1.668240e-03   81572
  3.879192e-01   4.959029e-01   3.081238e-03   1.677891e-03   87248
  3.985882e-01   5.119524e-01   3.084591e-03   1.685995e-03   92266
  4.092322e-01   5.325369e-01   3.063169e-03   1.722794e-03   96696
  4.198039e-01   5.482169e-01   3.037602e-03   1.734404e-03   100904
  4.303789e-01   5.689684e-01   3.065517e-03   1.751215e-03   107036
  4.410480e-01   5.911630e-01   3.089487e-03   1.760832e-03   113362
  4.517307e-01   6.081184e-01   3.072092e-03   1.762542e-03   118176
  4.623378e-01   6.301868e-01   3.054661e-03   1.813014e-03   122944
  4.729644e-01   6.509056e-01   3.083007e-03   1.814931e-03   129902
  4.836049e-01   6.646428e-01   3.061727e-03   1.808864e-03   134944
  4.942158e-01   6.928678e-01   3.064979e-03   1.851807e-03   140952
  5.048213e-01   7.069255e-01   3.064662e-03   1.854318e-03   147072
  5.154342e-01   7.296569e-01   3.060800e-03   1.858574e-03   153382
  5.260893e-01   7.551818e-01   3.082622e-03   1.866192e-03   160952
  5.367508e-01   7.716715e-01   3.070294e-03   1.891329e-03   166640
  5.473579e-01   7.984665e-01   3.057153e-03   1.928996e-03   172448
  5.579787e-01   8.169489e-01   3.077577e-03   1.925550e-03   180594
  5.686178e-01   8.397566e-01   3.060710e-03   1.935007e-03   186556
  5.792219e-01   8.621019e-01   3.063394e-03   1.962278e-03   193528
  5.898242e-01   8.889718e-01   3.060684e-03   1.981441e-03   200626
  6.004609e-01   9.086227e-01   3.076604e-03   1.995062e-03   209256
  6.111150e-01   9.356325e-01   3.069663e-03   2.015361e-03   216020
  6.217510e-01   9.614485e-01   3.075746e-03   2.031388e-03   223768
  6.323610e-01   9.781971e-01   3.055783e-03   2.046311e-03   230234
  6.429887e-01   1.006130e+00   3.074922e-03   2.057248e-03   239800
  6.536248e-01   1.032371e+00   3.063054e-03   2.077189e-03   246568
  6.642393e-01   1.060047e+00   3.068328e-03   2.096751e-03   254828
  6.748534e-01   1.078260e+00   3.064424e-03   2.097131e-03   263074
  6.854951e-01   1.102259e+00   3.071509e-03   2.112060e-03   272312
  6.961385e-01   1.129965e+00   3.070197e-03   2.140027e-03   280376
  7.067732e-01   1.159099e+00   3.071500e-03   2.160606e-03   288884
  7.174012e-01   1.180531e+00   3.068501e-03   2.160394e-03   297602
  7.280177e-01   1.216803e+00   3.057614e-03   2.200729e-03   305520
  7.386402e-01   1.235934e+00   3.075198e-03   2.194249e-03   315976
  7.492461e-01   1.262652e+00   3.052723e-03   2.209876e-03   322778
  7.598720e-01   1.297845e+00   3.080021e-03   2.240815e-03   335372
  7.705286e-01   1.317037e+00   3.068318e-03   2.247710e-03   343464
  7.811635e-01   1.342961e+00   3.070705e-03   2.261709e-03   352912
  7.917934e-01   1.372085e+00   3.070498e-03   2.274570e-03   362666
  8.024224e-01   1.408312e+00   3.063690e-03   2.313647e-03   371884
  8.130465e-01   1.431524e+00   3.069929e-03   2.312569e-03   382280
  8.236583e-01   1.460512e+00   3.060755e-03   2.326714e-03   390888
  8.342648e-01   1.487938e+00   3.067168e-03   2.345505e-03   402234
  8.448912e-01   1.529075e+00   3.064832e-03   2.377658e-03   412576
  8.555263e-01   1.545011e+00   3.071788e-03   2.375174e-03   423732
  8.661590e-01   1.579002e+00   3.068142e-03   2.396057e-03   433624
  8.767950e-01   1.608699e+00   3.072203e-03   2.404954e-03   445154
  8.874347e-01   1.642052e+00   3.069139e-03   2.436125e-03   455584
  8.980596e-01   1.669283e+00   3.064716e-03   2.447737e-03   465588
  9.086714e-01   1.695980e+00   3.065163e-03   2.453546e-03   476762
  9.193048e-01   1.730181e+00   3.073106e-03   2.467890e-03   489552
  9.299472e-01   1.766940e+00   3.069632e-03   2.500391e-03   500328
  9.405628e-01   1.799573e+00   3.059261e-03   2.519963e-03   509852
  9.511854e-01   1.825412e+00   3.074339e-03   2.527462e-03   524234
  9.618189e-01   1.856455e+00   3.061952e-03   2.537891e-03   534104
  9.724448e-01   1.890113e+00   3.070528e-03   2.556636e-03   547048
  9.830800e-01   1.921977e+00   3.073862e-03   2.564102e-03   559328
  9.937180e-01   1.957504e+00   3.070866e-03   2.590491e-03   571326
  1.004339e+00   1.990487e+00   3.060367e-03   2.602927e-03   581920
  1.014951e+00   2.021747e+00   3.064588e-03   2.620866e-03   594832
  1.025571e+00   2.055542e+00   3.068054e-03   2.638963e-03   608048
  1.036206e+00   2.090562e+00   3.070252e-03   2.650737e-03   621526
  1.046839e+00   2.123427e+00   3.066112e-03   2.681136e-03   633240
  1.057456e+00   2.156401e+00   3.064953e-03   2.681371e-03   645472
  1.068086e+00   2.192464e+00   3.075342e-03   2.699556e-03   660906
  1.078726e+00   2.229776e+00   3.067576e-03   2.723680e-03   672856
  1.089356e+00   2.262228e+00   3.067094e-03   2.728292e-03   685980
  1.099980e+00   2.294959e+00   3.067978e-03   2.746848e-03   699256
  1.110619e+00   2.334500e+00   3.074976e-03   2.756525e-03   714730
  1.121246e+00   2.367084e+00   3.059348e-03   2.782259e-03   725152
  1.131863e+00   2.401588e+00   3.067634e-03   2.797926e-03   740420
  1.142485e+00   2.431536e+00   3.069089e-03   2.807272e-03   754312
  1.153114e+00   2.467601e+00   3.069897e-03   2.821147e-03   769114
  1.163749e+00   2.517297e+00   3.069209e-03   2.848812e-03   783488
  1.174365e+00   2.543489e+00   3.058900e-03   2.856650e-03   794968
  1.184981e+00   2.585229e+00   3.070107e-03   2.868785e-03   812366
  1.195609e+00   2.625751e+00   3.065134e-03   2.890585e-03   825976
  1.206250e+00   2.659057e+00   3.075220e-03   2.898616e-03   843352
  1.216898e+00   2.695688e+00   3.073224e-03   2.911405e-03   857280
  1.227524e+00   2.742942e+00   3.063189e-03   2.942242e-03   869542
  1.238147e+00   2.778294e+00   3.070752e-03   2.952705e-03   887128
  1.248772e+00   2.816251e+00   3.063166e-03   2.964923e-03   900032
  1.259388e+00   2.849117e+00   3.067377e-03   2.973543e-03   916560
  1.270005e+00   2.880049e+00   3.061783e-03   2.993147e-03   930922
  1.280635e+00   2.926293e+00   3.071795e-03   2.998930e-03   949844
  1.291287e+00   2.970597e+00   3.076939e-03   3.018130e-03   966736
  1.301925e+00   3.006806e+00   3.065819e-03   3.044046e-03   978776
  1.312537e+00   3.048397e+00   3.064137e-03   3.063906e-03   994522
  1.323161e+00   3.085793e+00   3.068907e-03   3.069194e-03   1012420
  1.333794e+00   3.119555e+00   3.071598e-03   3.071729e-03   1029408
  1.344410e+00   3.165928e+00   3.058405e-03   3.105920e-03   1041658
  1.355032e+00   3.206853e+00   3.072381e-03   3.113022e-03   1063520
  1.365659e+00   3.246866e+00   3.060689e-03   3.132071e-03   1075808
  1.376294e+00   3.290471e+00   3.080019e-03   3.142154e-03   1098956
  1.386928e+00   3.333879e+00   3.061670e-03   3.162877e-03   1109810
  1.397545e+00   3.379484e+00   3.065288e-03   3.181829e-03   1128608
  1.408178e+00   3.416016e+00   3.073589e-03   3.176682e-03   1148264
  1.418813e+00   3.454265e+00   3.067917e-03   3.201988e-03   1163252
  1.429436e+00   3.490366e+00   3.067070e-03   3.218063e-03   1181042
  1.440060e+00   3.542164e+00   3.064325e-03   3.229805e-03   1197848
  1.450692e+00   3.575819e+00   3.073737e-03   3.239351e-03   1218848
  1.461323e+00   3.620159e+00   3.064859e-03   3.260931e-03   1232916
  1.471945e+00   3.657823e+00   3.068844e-03   3.266811e-03   1253002
  1.482566e+00   3.700061e+00   3.062284e-03   3.280512e-03   1268576
  1.493191e+00   3.750524e+00   3.071552e-03   3.304937e-03   1290128
  1.503822e+00   3.785929e+00   3.068342e-03   3.311901e-03   1307402
  1.514455e+00   3.833226e+00   3.069122e-03   3.329641e-03   1327028
  1.525083e+00   3.873252e+00   3.064970e-03   3.342399e-03   1343648
  1.535711e+00   3.923771e+00   3.070217e-03   3.363824e-03   1364096
  1.546341e+00   3.963699e+00   3.068950e-03   3.372588e-03   1382730
  1.556974e+00   3.994083e+00   3.068757e-03   3.376558e-03   1402164
  1.567604e+00   4.042716e+00   3.068159e-03   3.389690e-03   1420464
  1.578221e+00   4.086567e+00   3.063798e-03   3.411505e-03   1437368
  1.588847e+00   4.139909e+00   3.072142e-03   3.418567e-03   1461530
  1.599480e+00   4.170841e+00   3.065069e-03   3.437843e-03   1478264
  1.610108e+00   4.226948e+00   3.068902e-03   3.448791e-03   1499356
  1.620732e+00   4.263690e+00   3.065238e-03   3.460885e-03   1517016
  1.631360e+00   4.314729e+00   3.070849e-03   3.472330e-03   1540090
  1.641988e+00   4.350946e+00   3.065366e-03   3.491216e-03   1557360
  1.652609e+00   4.394323e+00   3.066926e-03   3.495281e-03   1577780
  1.663242e+00   4.439891e+00   3.075107e-03   3.501736e-03   1602578
  1.673875e+00   4.489666e+00   3.063542e-03   3.528065e-03   1617672
  1.684498e+00   4.534639e+00   3.069033e-03   3.540978e-03   1641016
  1.695122e+00   4.577646e+00   3.065080e-03   3.554526e-03   1659416
  1.705746e+00   4.616782e+00   3.068431e-03   3.559701e-03   1682670
  1.716382e+00   4.665111e+00   3.070690e-03   3.565371e-03   1705256
  1.727024e+00   4.700039e+00   3.071890e-03   3.578879e-03   1726312
  1.737645e+00   4.748913e+00   3.062639e-03   3.604524e-03   1741880
  1.748261e+00   4.798288e+00   3.067156e-03   3.606467e-03   1766454
  1.758897e+00   4.844292e+00   3.073105e-03   3.617849e-03   1791784
  1.769528e+00   4.896333e+00   3.063894e-03   3.647173e-03   1807712
  1.780139e+00   4.934284e+00   3.062775e-03   3.650731e-03   1829002
  1.790759e+00   4.983852e+00   3.067263e-03   3.664675e-03   1854216
  1.801400e+00   5.038062e+00   3.074631e-03   3.675214e-03   1880156
  1.812037e+00   5.065057e+00   3.068349e-03   3.683977e-03   1897568
  1.822663e+00   5.113011e+00   3.068475e-03   3.696930e-03   1920458
  1.833288e+00   5.163483e+00   3.065997e-03   3.699940e-03   1942208
  1.843915e+00   5.206887e+00   3.067813e-03   3.715546e-03   1965612
  1.854544e+00   5.248043e+00   3.069639e-03   3.721354e-03   1989000
  1.865168e+00   5.295752e+00   3.064465e-03   3.728151e-03   2009114
  1.875791e+00   5.333934e+00   3.067400e-03   3.734593e-03   2034464
  1.886424e+00   5.387033e+00   3.070174e-03   3.755007e-03   2058476
  1.897052e+00   5.429614e+00   3.068039e-03   3.767864e-03   2079648
  1.907673e+00   5.471701e+00   3.065891e-03   3.785293e-03   2102578
  1.918306e+00   5.510400e+00   3.070742e-03   3.776018e-03   2129928
  1.928942e+00   5.566345e+00   3.069733e-03   3.798718e-03   2152096
  1.939563e+00   5.616623e+00   3.062858e-03   3.813787e-03   2171142
  1.950185e+00   5.665382e+00   3.069150e-03   3.817928e-03   2200248
  1.960824e+00   5.693340e+00   3.071017e-03   3.814956e-03   2225216
  1.971460e+00   5.753366e+00   3.070942e-03   3.834491e-03   2248448
  1.982084e+00   5.792176e+00   3.064272e-03   3.848795e-03   2267942
  1.992710e+00   5.846995e+00   3.071051e-03   3.857144e-03   2298072
  2.003337e+00   5.897497e+00   3.064068e-03   3.877460e-03   2317272
  2.013961e+00   5.934071e+00   3.069747e-03   3.877796e-03   2345808
  2.024580e+00   5.974990e+00   3.062469e-03   3.881309e-03   2365650
  2.035206e+00   6.022971e+00   3.069930e-03   3.890086e-03   2396940
  2.045842e+00   6.071983e+00   3.069936e-03   3.903790e-03   2421272
  2.056473e+00   6.126009e+00   3.068399e-03   3.922063e-03   2444576
  2.067102e+00   6.162346e+00   3.069748e-03   3.919893e-03   2471490
  2.077728e+00   6.204283e+00   3.064854e-03   3.933174e-03   2493180
  2.088349e+00   6.251954e+00   3.068019e-03   3.936056e-03   2520952
  2.098972e+00   6.287622e+00   3.065319e-03   3.938811e-03   2544946
  2.109598e+00   6.324645e+00   3.068311e-03   3.948492e-03   2573856
  2.120230e+00   6.381180e+00   3.069026e-03   3.958992e-03   2600016
  2.130862e+00   6.428416e+00   3.069102e-03   3.962917e-03   2625484
  2.141490e+00   6.470668e+00   3.068080e-03   3.975087e-03   2651122
  2.152130e+00   6.522402e+00   3.074348e-03   3.978248e-03   2683488
  2.162754e+00   6.568379e+00   3.059466e-03   4.000266e-03   2696352
  2.173371e+00   6.603263e+00   3.071171e-03   3.989143e-03   2733020
  2.184002e+00   6.647789e+00   3.067530e-03   4.002650e-03   2757378
  2.194631e+00   6.695658e+00   3.067942e-03   4.013324e-03   2784864
  2.205259e+00   6.740709e+00   3.067811e-03   4.019871e-03   2811168
  2.215874e+00   6.784368e+00   3.061061e-03   4.024478e-03   2832274
  2.226505e+00   6.840658e+00   3.075611e-03   4.031982e-03   2873636
  2.237142e+00   6.880104e+00   3.064877e-03   4.049492e-03   2890496
  2.247766e+00   6.925023e+00   3.069851e-03   4.047298e-03   2921800
  2.258399e+00   6.954959e+00   3.071101e-03   4.043456e-03   2951298
  2.269032e+00   7.015592e+00   3.066274e-03   4.070064e-03   2975476
  2.279663e+00   7.045695e+00   3.071375e-03   4.066446e-03   3007728
  2.290285e+00   7.094807e+00   3.061886e-03   4.075721e-03   3025776
  2.300910e+00   7.149260e+00   3.072955e-03   4.084351e-03   3065762
  2.311540e+00   7.171183e+00   3.063208e-03   4.081272e-03   3084856
  2.322162e+00   7.227787e+00   3.068985e-03   4.097116e-03   3118044
  2.332782e+00   7.260677e+00   3.064319e-03   4.094300e-03   3141352
  2.343410e+00   7.316134e+00   3.072036e-03   4.103996e-03   3179274
  2.354046e+00   7.349559e+00   3.067682e-03   4.104153e-03   3204120
  2.364668e+00   7.391563e+00   3.063610e-03   4.117818e-03   3227900
  2.375288e+00   7.448746e+00   3.068722e-03   4.122499e-03   3262394
  2.385925e+00   7.484405e+00   3.071814e-03   4.127132e-03   3295680
  2.396559e+00   7.520775e+00   3.067166e-03   4.129370e-03   3319560
  2.407184e+00   7.565272e+00   3.068070e-03   4.134074e-03   3348972
  2.417810e+00   7.604387e+00   3.068540e-03   4.138271e-03   3379722
  2.428441e+00   7.648603e+00   3.068348e-03   4.137116e-03   3410720
  2.439075e+00   7.696921e+00   3.069517e-03   4.152861e-03   3441504
  2.449697e+00   7.736125e+00   3.063301e-03   4.153351e-03   3463624
  2.460317e+00   7.778728e+00   3.068043e-03   4.159359e-03   3499790
  2.470951e+00   7.824110e+00   3.070702e-03   4.167818e-03   3533560
  2.481588e+00   7.863033e+00   3.069830e-03   4.167109e-03   3561920
  2.492209e+00   7.896253e+00   3.064208e-03   4.167879e-03   3585208
  2.502830e+00   7.946328e+00   3.069185e-03   4.176142e-03   3622518
  2.513468e+00   7.978024e+00   3.072344e-03   4.174172e-03   3657584
  2.524094e+00   8.031321e+00   3.062507e-03   4.195784e-03   3676440
  2.534707e+00   8.075858e+00   3.065232e-03   4.189052e-03   3711282
  2.545334e+00   8.111768e+00   3.068763e-03   4.192668e-03   3747696
  2.555965e+00   8.149049e+00   3.067225e-03   4.193724e-03   3776188
  2.566601e+00   8.184202e+00   3.074483e-03   4.189238e-03   3815304
  2.577232e+00   8.229828e+00   3.064660e-03   4.194546e-03   3835370
  2.587856e+00   8.267281e+00   3.068926e-03   4.201410e-03   3873424
  2.598487e+00   8.318108e+00   3.067978e-03   4.215291e-03   3903420
  2.609117e+00   8.348156e+00   3.070036e-03   4.204524e-03   3937624
  2.619745e+00   8.387724e+00   3.066011e-03   4.210623e-03   3965658
  2.630375e+00   8.423255e+00   3.069802e-03   4.215037e-03   4002984
  2.641001e+00   8.469056e+00   3.065136e-03   4.217186e-03   4027928
  2.651616e+00   8.502559e+00   3.064941e-03   4.224766e-03   4059844
  2.662241e+00   8.542542e+00   3.069945e-03   4.218766e-03   4100338
  2.672876e+00   8.573261e+00   3.069128e-03   4.219019e-03   4132264
  2.683506e+00   8.617933e+00   3.068474e-03   4.225595e-03   4163216
  2.694131e+00   8.658343e+00   3.066146e-03   4.228882e-03   4193350
  2.704761e+00   8.687911e+00   3.071068e-03   4.225441e-03   4234456
  2.715390e+00   8.730276e+00   3.064079e-03   4.232475e-03   4257264
  2.726012e+00   8.769219e+00   3.069774e-03   4.238881e-03   4297352
  2.736640e+00   8.811784e+00   3.067495e-03   4.235904e-03   4328642
  2.747272e+00   8.837829e+00   3.070663e-03   4.229343e-03   4367948
  2.757895e+00   8.881241e+00   3.061799e-03   4.239604e-03   4388384
  2.768519e+00   8.918096e+00   3.072247e-03   4.233900e-03   4436648
  2.779154e+00   8.954315e+00   3.067997e-03   4.238719e-03   4465658
  2.789787e+00   8.992783e+00   3.069677e-03   4.240637e-03   4502948
  2.800413e+00   9.019748e+00   3.064787e-03   4.236601e-03   4528880
  2.811033e+00   9.069177e+00   3.067181e-03   4.243819e-03   4566290
  2.821663e+00   9.083955e+00   3.070655e-03   4.231618e-03   4606856
  2.832293e+00   9.130253e+00   3.066552e-03   4.237425e-03   4635380
  2.842916e+00   9.163966e+00   3.067131e-03   4.239825e-03   4670384
  2.853543e+00   9.198170e+00   3.069161e-03   4.241452e-03   4709258
  2.864179e+00   9.232578e+00   3.070324e-03   4.240978e-03   4747352
  2.874805e+00   9.268624e+00   3.063655e-03   4.245714e-03   4771664
  2.885427e+00   9.301887e+00   3.068600e-03   4.244277e-03   4813532
  2.896058e+00   9.331423e+00   3.070437e-03   4.236113e-03   4852322
  2.906693e+00   9.365801e+00   3.069013e-03   4.235128e-03   4886480
  2.917320e+00   9.404155e+00   3.066289e-03   4.237272e-03   4917248
  2.927939e+00   9.418540e+00   3.065099e-03   4.232603e-03   4950828
  2.938569e+00   9.472923e+00   3.072788e-03   4.233236e-03   5000170
  2.949204e+00   9.498563e+00   3.066857e-03   4.236152e-03   5026952
  2.959825e+00   9.529227e+00   3.064676e-03   4.238049e-03   5058752
  2.970445e+00   9.562468e+00   3.067741e-03   4.235578e-03   5100722
  2.981076e+00   9.589815e+00   3.068979e-03   4.228302e-03   5140124
  2.991706e+00   9.618530e+00   3.067937e-03   4.233747e-03   5174072
  3.002335e+00   9.654830e+00   3.068928e-03   4.227762e-03   5211608
  3.012962e+00   9.684390e+00   3.067917e-03   4.231876e-03   5247794
  3.023589e+00   9.719689e+00   3.066908e-03   4.225738e-03   5284196
  3.034222e+00   9.747383e+00   3.071657e-03   4.224478e-03   5328800
