# power spectrum of delta
# redshift z=0.199585
# k              Pk             sigma(k)       sigma(Pk)      count
  7.830312e-03   1.844119e-04   1.198114e-03   3.595159e-05   18
  1.686348e-02   5.080573e-03   2.897918e-03   5.470641e-04   152
  2.725284e-02   1.868783e-02   3.060867e-03   8.682301e-04   416
  3.742835e-02   3.761359e-02   2.912555e-03   1.447548e-03   770
  4.808679e-02   6.267677e-02   3.119650e-03   1.781802e-03   1364
  5.876109e-02   9.380267e-02   3.054550e-03   2.144494e-03   1976
  6.939824e-02   1.374241e-01   3.112555e-03   2.645986e-03   2792
  7.984642e-02   1.769380e-01   2.971805e-03   2.973360e-03   3578
  9.038229e-02   2.087102e-01   3.049521e-03   3.069054e-03   4724
  1.011318e-01   2.465263e-01   3.134595e-03   3.182942e-03   6032
  1.117485e-01   2.855851e-01   3.016599e-03   3.520842e-03   7072
  1.222702e-01   3.507427e-01   3.056387e-03   3.876130e-03   8634
  1.329722e-01   4.129318e-01   3.095256e-03   4.170372e-03   10336
  1.436677e-01   4.643006e-01   3.082009e-03   4.192310e-03   11940
  1.541872e-01   5.050731e-01   3.021465e-03   4.417704e-03   13490
  1.647185e-01   5.662764e-01   3.054444e-03   4.475325e-03   15656
  1.754149e-01   6.187606e-01   3.102608e-03   4.568759e-03   18008
  1.860920e-01   6.899116e-01   3.069464e-03   4.899237e-03   19964
  1.966957e-01   7.605867e-01   3.066093e-03   5.109306e-03   22354
  2.072851e-01   8.093260e-01   3.030819e-03   5.115616e-03   24648
  2.179134e-01   8.739751e-01   3.083109e-03   5.177264e-03   27592
  2.285517e-01   9.611360e-01   3.075318e-03   5.585223e-03   30152
  2.391687e-01   1.026366e+00   3.069056e-03   5.736586e-03   33046
  2.497808e-01   1.109357e+00   3.053846e-03   5.856089e-03   35992
  2.604233e-01   1.202113e+00   3.074764e-03   6.069157e-03   39304
  2.710722e-01   1.272797e+00   3.082145e-03   6.155211e-03   42608
  2.817050e-01   1.365466e+00   3.058267e-03   6.371317e-03   45758
  2.923349e-01   1.440618e+00   3.072286e-03   6.462730e-03   49536
  3.029238e-01   1.527888e+00   3.039208e-03   6.702592e-03   52488
  3.135134e-01   1.645087e+00   3.084628e-03   6.855087e-03   57034
  3.241511e-01   1.707540e+00   3.061146e-03   6.875303e-03   60648
  3.347969e-01   1.841566e+00   3.076329e-03   7.236203e-03   65044
  3.454223e-01   1.946217e+00   3.057760e-03   7.388508e-03   68720
  3.560505e-01   2.046501e+00   3.078281e-03   7.515862e-03   73538
  3.667175e-01   2.156046e+00   3.076939e-03   7.696155e-03   78080
  3.773260e-01   2.283682e+00   3.039859e-03   7.989334e-03   81572
  3.879192e-01   2.391190e+00   3.081238e-03   8.185717e-03   87248
  3.985882e-01   2.500448e+00   3.084591e-03   8.249041e-03   92266
  4.092322e-01   2.633583e+00   3.063169e-03   8.458647e-03   96696
  4.198039e-01   2.754554e+00   3.037602e-03   8.729609e-03   100904
  4.303789e-01   2.889285e+00   3.065517e-03   8.820210e-03   107036
  4.410480e-01   3.004161e+00   3.089487e-03   8.914989e-03   113362
  4.517307e-01   3.173464e+00   3.072092e-03   9.240887e-03   118176
  4.623378e-01   3.299695e+00   3.054661e-03   9.421234e-03   122944
  4.729644e-01   3.435285e+00   3.083007e-03   9.568009e-03   129902
  4.836049e-01   3.602509e+00   3.061727e-03   9.753541e-03   134944
  4.942158e-01   3.725449e+00   3.064979e-03   9.925927e-03   140952
  5.048213e-01   3.907777e+00   3.064662e-03   1.016077e-02   147072
  5.154342e-01   4.055874e+00   3.060800e-03   1.038435e-02   153382
  5.260893e-01   4.226700e+00   3.082622e-03   1.050257e-02   160952
  5.367508e-01   4.374716e+00   3.070294e-03   1.077286e-02   166640
  5.473579e-01   4.523893e+00   3.057153e-03   1.091176e-02   172448
  5.579787e-01   4.692972e+00   3.077577e-03   1.110463e-02   180594
  5.686178e-01   4.895435e+00   3.060710e-03   1.134829e-02   186556
  5.792219e-01   5.050657e+00   3.063394e-03   1.147992e-02   193528
  5.898242e-01   5.255419e+00   3.060684e-03   1.175712e-02   200626
  6.004609e-01   5.399228e+00   3.076604e-03   1.183840e-02   209256
  6.111150e-01   5.592695e+00   3.069663e-03   1.208489e-02   216020
  6.217510e-01   5.802048e+00   3.075746e-03   1.228157e-02   223768
  6.323610e-01   6.006998e+00   3.055783e-03   1.249740e-02   230234
  6.429887e-01   6.204933e+00   3.074922e-03   1.267271e-02   239800
  6.536248e-01   6.384296e+00   3.063054e-03   1.281497e-02   246568
  6.642393e-01   6.631140e+00   3.068328e-03   1.312858e-02   254828
  6.748534e-01   6.786802e+00   3.064424e-03   1.322564e-02   263074
  6.854951e-01   7.007254e+00   3.071509e-03   1.340341e-02   272312
  6.961385e-01   7.256809e+00   3.070197e-03   1.371895e-02   280376
  7.067732e-01   7.444303e+00   3.071500e-03   1.383222e-02   288884
  7.174012e-01   7.674847e+00   3.068501e-03   1.401204e-02   297602
  7.280177e-01   7.880546e+00   3.057614e-03   1.431586e-02   305520
  7.386402e-01   8.120803e+00   3.075198e-03   1.445698e-02   315976
  7.492461e-01   8.345576e+00   3.052723e-03   1.471248e-02   322778
  7.598720e-01   8.613014e+00   3.080021e-03   1.484643e-02   335372
  7.705286e-01   8.774440e+00   3.068318e-03   1.498484e-02   343464
  7.811635e-01   9.037285e+00   3.070705e-03   1.518554e-02   352912
  7.917934e-01   9.304601e+00   3.070498e-03   1.543703e-02   362666
  8.024224e-01   9.527950e+00   3.063690e-03   1.567996e-02   371884
  8.130465e-01   9.780811e+00   3.069929e-03   1.583770e-02   382280
  8.236583e-01   1.004795e+01   3.060755e-03   1.614760e-02   390888
  8.342648e-01   1.030414e+01   3.067168e-03   1.632852e-02   402234
  8.448912e-01   1.054445e+01   3.064832e-03   1.637154e-02   412576
  8.555263e-01   1.080735e+01   3.071788e-03   1.653488e-02   423732
  8.661590e-01   1.108455e+01   3.068142e-03   1.679769e-02   433624
  8.767950e-01   1.137480e+01   3.072203e-03   1.705018e-02   445154
  8.874347e-01   1.157916e+01   3.069139e-03   1.715206e-02   455584
  8.980596e-01   1.186816e+01   3.064716e-03   1.737131e-02   465588
  9.086714e-01   1.211959e+01   3.065163e-03   1.754474e-02   476762
  9.193048e-01   1.241690e+01   3.073106e-03   1.778036e-02   489552
  9.299472e-01   1.265546e+01   3.069632e-03   1.793728e-02   500328
  9.405628e-01   1.294710e+01   3.059261e-03   1.812025e-02   509852
  9.511854e-01   1.320325e+01   3.074339e-03   1.823624e-02   524234
  9.618189e-01   1.353904e+01   3.061952e-03   1.848269e-02   534104
  9.724448e-01   1.378962e+01   3.070528e-03   1.857387e-02   547048
  9.830800e-01   1.407118e+01   3.073862e-03   1.881637e-02   559328
  9.937180e-01   1.433492e+01   3.070866e-03   1.891475e-02   571326
  1.004339e+00   1.460993e+01   3.060367e-03   1.916568e-02   581920
  1.014951e+00   1.494044e+01   3.064588e-03   1.940421e-02   594832
  1.025571e+00   1.520077e+01   3.068054e-03   1.953222e-02   608048
  1.036206e+00   1.554842e+01   3.070252e-03   1.968148e-02   621526
  1.046839e+00   1.580263e+01   3.066112e-03   1.986651e-02   633240
  1.057456e+00   1.606485e+01   3.064953e-03   2.005750e-02   645472
  1.068086e+00   1.643665e+01   3.075342e-03   2.025168e-02   660906
  1.078726e+00   1.671077e+01   3.067576e-03   2.034682e-02   672856
  1.089356e+00   1.694744e+01   3.067094e-03   2.048533e-02   685980
  1.099980e+00   1.730748e+01   3.067978e-03   2.067827e-02   699256
  1.110619e+00   1.753998e+01   3.074976e-03   2.072305e-02   714730
  1.121246e+00   1.791738e+01   3.059348e-03   2.104086e-02   725152
  1.131863e+00   1.821097e+01   3.067634e-03   2.116998e-02   740420
  1.142485e+00   1.846711e+01   3.069089e-03   2.121286e-02   754312
  1.153114e+00   1.880398e+01   3.069897e-03   2.144551e-02   769114
  1.163749e+00   1.906755e+01   3.069209e-03   2.159156e-02   783488
  1.174365e+00   1.938514e+01   3.058900e-03   2.176687e-02   794968
  1.184981e+00   1.971556e+01   3.070107e-03   2.190840e-02   812366
  1.195609e+00   2.001862e+01   3.065134e-03   2.200006e-02   825976
  1.206250e+00   2.037874e+01   3.075220e-03   2.224453e-02   843352
  1.216898e+00   2.064371e+01   3.073224e-03   2.231048e-02   857280
  1.227524e+00   2.092531e+01   3.063189e-03   2.247059e-02   869542
  1.238147e+00   2.122608e+01   3.070752e-03   2.253805e-02   887128
  1.248772e+00   2.156723e+01   3.063166e-03   2.267640e-02   900032
  1.259388e+00   2.192062e+01   3.067377e-03   2.283139e-02   916560
  1.270005e+00   2.217719e+01   3.061783e-03   2.293832e-02   930922
  1.280635e+00   2.242902e+01   3.071795e-03   2.301272e-02   949844
  1.291287e+00   2.281723e+01   3.076939e-03   2.322438e-02   966736
  1.301925e+00   2.312354e+01   3.065819e-03   2.337914e-02   978776
  1.312537e+00   2.341184e+01   3.064137e-03   2.344089e-02   994522
  1.323161e+00   2.374577e+01   3.068907e-03   2.361336e-02   1012420
  1.333794e+00   2.405547e+01   3.071598e-03   2.373591e-02   1029408
  1.344410e+00   2.434717e+01   3.058405e-03   2.383334e-02   1041658
  1.355032e+00   2.467550e+01   3.072381e-03   2.393486e-02   1063520
  1.365659e+00   2.490089e+01   3.060689e-03   2.397188e-02   1075808
  1.376294e+00   2.529307e+01   3.080019e-03   2.411447e-02   1098956
  1.386928e+00   2.561315e+01   3.061670e-03   2.432912e-02   1109810
  1.397545e+00   2.583312e+01   3.065288e-03   2.431577e-02   1128608
  1.408178e+00   2.626513e+01   3.073589e-03   2.453987e-02   1148264
  1.418813e+00   2.652977e+01   3.067917e-03   2.461481e-02   1163252
  1.429436e+00   2.679024e+01   3.067070e-03   2.462496e-02   1181042
  1.440060e+00   2.711134e+01   3.064325e-03   2.476250e-02   1197848
  1.450692e+00   2.743604e+01   3.073737e-03   2.487088e-02   1218848
  1.461323e+00   2.772195e+01   3.064859e-03   2.495548e-02   1232916
  1.471945e+00   2.799470e+01   3.068844e-03   2.506228e-02   1253002
  1.482566e+00   2.827495e+01   3.062284e-03   2.516375e-02   1268576
  1.493191e+00   2.865132e+01   3.071552e-03   2.523508e-02   1290128
  1.503822e+00   2.895877e+01   3.068342e-03   2.530294e-02   1307402
  1.514455e+00   2.919811e+01   3.069122e-03   2.539082e-02   1327028
  1.525083e+00   2.962215e+01   3.064970e-03   2.554783e-02   1343648
  1.535711e+00   2.988578e+01   3.070217e-03   2.554863e-02   1364096
  1.546341e+00   3.017013e+01   3.068950e-03   2.568145e-02   1382730
  1.556974e+00   3.045450e+01   3.068757e-03   2.576540e-02   1402164
  1.567604e+00   3.076753e+01   3.068159e-03   2.584537e-02   1420464
  1.578221e+00   3.104383e+01   3.063798e-03   2.587003e-02   1437368
  1.588847e+00   3.133102e+01   3.072142e-03   2.590820e-02   1461530
  1.599480e+00   3.153213e+01   3.065069e-03   2.586310e-02   1478264
  1.610108e+00   3.189797e+01   3.068902e-03   2.604960e-02   1499356
  1.620732e+00   3.211054e+01   3.065238e-03   2.605754e-02   1517016
  1.631360e+00   3.249694e+01   3.070849e-03   2.614745e-02   1540090
  1.641988e+00   3.277033e+01   3.065366e-03   2.622713e-02   1557360
  1.652609e+00   3.309371e+01   3.066926e-03   2.637371e-02   1577780
  1.663242e+00   3.330712e+01   3.075107e-03   2.633195e-02   1602578
  1.673875e+00   3.367453e+01   3.063542e-03   2.651268e-02   1617672
  1.684498e+00   3.390802e+01   3.069033e-03   2.649457e-02   1641016
  1.695122e+00   3.419358e+01   3.065080e-03   2.649601e-02   1659416
  1.705746e+00   3.445592e+01   3.068431e-03   2.659762e-02   1682670
  1.716382e+00   3.476736e+01   3.070690e-03   2.655551e-02   1705256
  1.727024e+00   3.495429e+01   3.071890e-03   2.658794e-02   1726312
  1.737645e+00   3.524428e+01   3.062639e-03   2.671989e-02   1741880
  1.748261e+00   3.558072e+01   3.067156e-03   2.684707e-02   1766454
  1.758897e+00   3.581286e+01   3.073105e-03   2.678443e-02   1791784
  1.769528e+00   3.608032e+01   3.063894e-03   2.683728e-02   1807712
  1.780139e+00   3.644079e+01   3.062775e-03   2.694883e-02   1829002
  1.790759e+00   3.665894e+01   3.067263e-03   2.690366e-02   1854216
  1.801400e+00   3.686251e+01   3.074631e-03   2.685881e-02   1880156
  1.812037e+00   3.717200e+01   3.068349e-03   2.699424e-02   1897568
  1.822663e+00   3.741227e+01   3.068475e-03   2.698303e-02   1920458
  1.833288e+00   3.772148e+01   3.065997e-03   2.704797e-02   1942208
  1.843915e+00   3.797500e+01   3.067813e-03   2.710396e-02   1965612
  1.854544e+00   3.812550e+01   3.069639e-03   2.707029e-02   1989000
  1.865168e+00   3.837682e+01   3.064465e-03   2.705608e-02   2009114
  1.875791e+00   3.860915e+01   3.067400e-03   2.702452e-02   2034464
  1.886424e+00   3.894405e+01   3.070174e-03   2.712858e-02   2058476
  1.897052e+00   3.913482e+01   3.068039e-03   2.716969e-02   2079648
  1.907673e+00   3.935307e+01   3.065891e-03   2.717096e-02   2102578
  1.918306e+00   3.960682e+01   3.070742e-03   2.706362e-02   2129928
  1.928942e+00   3.987133e+01   3.069733e-03   2.718185e-02   2152096
  1.939563e+00   4.015269e+01   3.062858e-03   2.728611e-02   2171142
  1.950185e+00   4.035766e+01   3.069150e-03   2.718252e-02   2200248
  1.960824e+00   4.059933e+01   3.071017e-03   2.719354e-02   2225216
  1.971460e+00   4.080844e+01   3.070942e-03   2.717585e-02   2248448
  1.982084e+00   4.113504e+01   3.064272e-03   2.731729e-02   2267942
  1.992710e+00   4.131012e+01   3.071051e-03   2.727331e-02   2298072
  2.003337e+00   4.154551e+01   3.064068e-03   2.732081e-02   2317272
  2.013961e+00   4.172834e+01   3.069747e-03   2.723976e-02   2345808
  2.024580e+00   4.195635e+01   3.062469e-03   2.728660e-02   2365650
  2.035206e+00   4.214836e+01   3.069930e-03   2.723559e-02   2396940
  2.045842e+00   4.237551e+01   3.069936e-03   2.724610e-02   2421272
  2.056473e+00   4.262657e+01   3.068399e-03   2.727906e-02   2444576
  2.067102e+00   4.283009e+01   3.069748e-03   2.723387e-02   2471490
  2.077728e+00   4.304045e+01   3.064854e-03   2.724309e-02   2493180
  2.088349e+00   4.327037e+01   3.068019e-03   2.726847e-02   2520952
  2.098972e+00   4.339429e+01   3.065319e-03   2.718989e-02   2544946
  2.109598e+00   4.357577e+01   3.068311e-03   2.716735e-02   2573856
  2.120230e+00   4.391695e+01   3.069026e-03   2.723385e-02   2600016
  2.130862e+00   4.406455e+01   3.069102e-03   2.716448e-02   2625484
  2.141490e+00   4.417503e+01   3.068080e-03   2.718140e-02   2651122
  2.152130e+00   4.445654e+01   3.074348e-03   2.714760e-02   2683488
  2.162754e+00   4.460524e+01   3.059466e-03   2.717538e-02   2696352
  2.173371e+00   4.482733e+01   3.071171e-03   2.710091e-02   2733020
  2.184002e+00   4.505799e+01   3.067530e-03   2.709580e-02   2757378
  2.194631e+00   4.523220e+01   3.067942e-03   2.707364e-02   2784864
  2.205259e+00   4.532241e+01   3.067811e-03   2.699916e-02   2811168
  2.215874e+00   4.552675e+01   3.061061e-03   2.707824e-02   2832274
  2.226505e+00   4.582077e+01   3.075611e-03   2.697113e-02   2873636
  2.237142e+00   4.592513e+01   3.064877e-03   2.702830e-02   2890496
  2.247766e+00   4.622769e+01   3.069851e-03   2.702145e-02   2921800
  2.258399e+00   4.636063e+01   3.071101e-03   2.699455e-02   2951298
  2.269032e+00   4.648358e+01   3.066274e-03   2.695515e-02   2975476
  2.279663e+00   4.665671e+01   3.071375e-03   2.692519e-02   3007728
  2.290285e+00   4.680476e+01   3.061886e-03   2.690351e-02   3025776
  2.300910e+00   4.697133e+01   3.072955e-03   2.680627e-02   3065762
  2.311540e+00   4.711071e+01   3.063208e-03   2.678703e-02   3084856
  2.322162e+00   4.732674e+01   3.068985e-03   2.679173e-02   3118044
  2.332782e+00   4.741215e+01   3.064319e-03   2.673137e-02   3141352
  2.343410e+00   4.759436e+01   3.072036e-03   2.673240e-02   3179274
  2.354046e+00   4.779540e+01   3.067682e-03   2.672300e-02   3204120
  2.364668e+00   4.788431e+01   3.063610e-03   2.663642e-02   3227900
  2.375288e+00   4.808605e+01   3.068722e-03   2.661028e-02   3262394
  2.385925e+00   4.824808e+01   3.071814e-03   2.657297e-02   3295680
  2.396559e+00   4.838183e+01   3.067166e-03   2.653313e-02   3319560
  2.407184e+00   4.856906e+01   3.068070e-03   2.656252e-02   3348972
  2.417810e+00   4.866235e+01   3.068540e-03   2.648162e-02   3379722
  2.428441e+00   4.874723e+01   3.068348e-03   2.640216e-02   3410720
  2.439075e+00   4.894109e+01   3.069517e-03   2.641477e-02   3441504
  2.449697e+00   4.904789e+01   3.063301e-03   2.635272e-02   3463624
  2.460317e+00   4.924585e+01   3.068043e-03   2.629963e-02   3499790
  2.470951e+00   4.941033e+01   3.070702e-03   2.631072e-02   3533560
  2.481588e+00   4.948589e+01   3.069830e-03   2.620578e-02   3561920
  2.492209e+00   4.968448e+01   3.064208e-03   2.628728e-02   3585208
  2.502830e+00   4.970415e+01   3.069185e-03   2.610259e-02   3622518
  2.513468e+00   4.979715e+01   3.072344e-03   2.605211e-02   3657584
  2.524094e+00   4.995943e+01   3.062507e-03   2.604795e-02   3676440
  2.534707e+00   5.019368e+01   3.065232e-03   2.604264e-02   3711282
  2.545334e+00   5.020158e+01   3.068763e-03   2.595698e-02   3747696
  2.555965e+00   5.040521e+01   3.067225e-03   2.595889e-02   3776188
  2.566601e+00   5.045469e+01   3.074483e-03   2.582530e-02   3815304
  2.577232e+00   5.058541e+01   3.064660e-03   2.585459e-02   3835370
  2.587856e+00   5.072739e+01   3.068926e-03   2.579003e-02   3873424
  2.598487e+00   5.077035e+01   3.067978e-03   2.569051e-02   3903420
  2.609117e+00   5.091516e+01   3.070036e-03   2.565314e-02   3937624
  2.619745e+00   5.103311e+01   3.066011e-03   2.561832e-02   3965658
  2.630375e+00   5.107858e+01   3.069802e-03   2.552079e-02   4002984
  2.641001e+00   5.117449e+01   3.065136e-03   2.549606e-02   4027928
  2.651616e+00   5.130731e+01   3.064941e-03   2.543811e-02   4059844
  2.662241e+00   5.143080e+01   3.069945e-03   2.536551e-02   4100338
  2.672876e+00   5.152945e+01   3.069128e-03   2.535061e-02   4132264
  2.683506e+00   5.161948e+01   3.068474e-03   2.531195e-02   4163216
  2.694131e+00   5.162247e+01   3.066146e-03   2.522255e-02   4193350
  2.704761e+00   5.175134e+01   3.071068e-03   2.514269e-02   4234456
  2.715390e+00   5.182751e+01   3.064079e-03   2.512404e-02   4257264
  2.726012e+00   5.184783e+01   3.069774e-03   2.499477e-02   4297352
  2.736640e+00   5.202149e+01   3.067495e-03   2.499561e-02   4328642
  2.747272e+00   5.208498e+01   3.070663e-03   2.490316e-02   4367948
  2.757895e+00   5.211223e+01   3.061799e-03   2.487261e-02   4388384
  2.768519e+00   5.222085e+01   3.072247e-03   2.477403e-02   4436648
  2.779154e+00   5.235181e+01   3.067997e-03   2.473764e-02   4465658
  2.789787e+00   5.236804e+01   3.069677e-03   2.468283e-02   4502948
  2.800413e+00   5.246509e+01   3.064787e-03   2.465936e-02   4528880
  2.811033e+00   5.255440e+01   3.067181e-03   2.456336e-02   4566290
  2.821663e+00   5.262833e+01   3.070655e-03   2.452050e-02   4606856
  2.832293e+00   5.271119e+01   3.066552e-03   2.444363e-02   4635380
  2.842916e+00   5.274962e+01   3.067131e-03   2.441745e-02   4670384
  2.853543e+00   5.276227e+01   3.069161e-03   2.433088e-02   4709258
  2.864179e+00   5.282401e+01   3.070324e-03   2.428852e-02   4747352
  2.874805e+00   5.291277e+01   3.063655e-03   2.421763e-02   4771664
  2.885427e+00   5.301990e+01   3.068600e-03   2.415813e-02   4813532
  2.896058e+00   5.305228e+01   3.070437e-03   2.407340e-02   4852322
  2.906693e+00   5.312511e+01   3.069013e-03   2.403447e-02   4886480
  2.917320e+00   5.317844e+01   3.066289e-03   2.395873e-02   4917248
  2.927939e+00   5.318879e+01   3.065099e-03   2.391494e-02   4950828
  2.938569e+00   5.322576e+01   3.072788e-03   2.379535e-02   5000170
  2.949204e+00   5.328530e+01   3.066857e-03   2.378474e-02   5026952
  2.959825e+00   5.339488e+01   3.064676e-03   2.373757e-02   5058752
  2.970445e+00   5.338471e+01   3.067741e-03   2.363483e-02   5100722
  2.981076e+00   5.341846e+01   3.068979e-03   2.359586e-02   5140124
  2.991706e+00   5.346027e+01   3.067937e-03   2.352075e-02   5174072
  3.002335e+00   5.350744e+01   3.068928e-03   2.345211e-02   5211608
  3.012962e+00   5.354651e+01   3.067917e-03   2.337870e-02   5247794
  3.023589e+00   5.352968e+01   3.066908e-03   2.326904e-02   5284196
  3.034222e+00   5.360709e+01   3.071657e-03   2.322674e-02   5328800
