# power spectrum of delta_N
# redshift z=0.897999
# k              Pk             sigma(k)       sigma(Pk)      count
  7.830312e-03   9.342542e-05   1.198114e-03   1.819042e-05   18
  1.686348e-02   2.561157e-03   2.897918e-03   2.763973e-04   152
  2.725284e-02   9.394730e-03   3.060867e-03   4.361553e-04   416
  3.742835e-02   1.896612e-02   2.912555e-03   7.307167e-04   770
  4.808679e-02   3.173139e-02   3.119650e-03   8.995994e-04   1364
  5.876109e-02   4.728821e-02   3.054550e-03   1.084643e-03   1976
  6.939824e-02   6.957597e-02   3.112555e-03   1.339117e-03   2792
  7.984642e-02   8.925015e-02   2.971805e-03   1.515928e-03   3578
  9.038229e-02   1.054953e-01   3.049521e-03   1.552798e-03   4724
  1.011318e-01   1.231729e-01   3.134595e-03   1.605107e-03   6032
  1.117485e-01   1.433839e-01   3.016599e-03   1.759829e-03   7072
  1.222702e-01   1.748928e-01   3.056387e-03   1.932387e-03   8634
  1.329722e-01   2.064862e-01   3.095256e-03   2.069610e-03   10336
  1.436677e-01   2.294249e-01   3.082009e-03   2.070970e-03   11940
  1.541872e-01   2.467549e-01   3.021465e-03   2.162197e-03   13490
  1.647185e-01   2.714658e-01   3.054444e-03   2.152193e-03   15656
  1.754149e-01   2.957932e-01   3.102608e-03   2.201311e-03   18008
  1.860920e-01   3.305596e-01   3.069464e-03   2.333945e-03   19964
  1.966957e-01   3.615533e-01   3.066093e-03   2.435704e-03   22354
  2.072851e-01   3.821610e-01   3.030819e-03   2.427903e-03   24648
  2.179134e-01   4.078447e-01   3.083109e-03   2.431819e-03   27592
  2.285517e-01   4.390596e-01   3.075318e-03   2.540915e-03   30152
  2.391687e-01   4.676344e-01   3.069056e-03   2.609156e-03   33046
  2.497808e-01   5.057138e-01   3.053846e-03   2.672477e-03   35992
  2.604233e-01   5.425390e-01   3.074764e-03   2.756424e-03   39304
  2.710722e-01   5.769533e-01   3.082145e-03   2.784728e-03   42608
  2.817050e-01   6.068888e-01   3.058267e-03   2.839719e-03   45758
  2.923349e-01   6.331171e-01   3.072286e-03   2.870541e-03   49536
  3.029238e-01   6.701046e-01   3.039208e-03   2.920544e-03   52488
  3.135134e-01   7.167160e-01   3.084628e-03   2.998599e-03   57034
  3.241511e-01   7.356109e-01   3.061146e-03   2.976265e-03   60648
  3.347969e-01   7.854259e-01   3.076329e-03   3.082384e-03   65044
  3.454223e-01   8.250744e-01   3.057760e-03   3.124752e-03   68720
  3.560505e-01   8.557843e-01   3.078281e-03   3.148180e-03   73538
  3.667175e-01   8.946916e-01   3.076939e-03   3.201536e-03   78080
  3.773260e-01   9.420758e-01   3.039859e-03   3.304658e-03   81572
  3.879192e-01   9.849430e-01   3.081238e-03   3.356602e-03   87248
  3.985882e-01   1.021879e+00   3.084591e-03   3.356257e-03   92266
  4.092322e-01   1.068434e+00   3.063169e-03   3.455093e-03   96696
  4.198039e-01   1.102513e+00   3.037602e-03   3.502991e-03   100904
  4.303789e-01   1.155055e+00   3.065517e-03   3.526771e-03   107036
  4.410480e-01   1.201820e+00   3.089487e-03   3.569103e-03   113362
  4.517307e-01   1.245355e+00   3.072092e-03   3.598379e-03   118176
  4.623378e-01   1.293701e+00   3.054661e-03   3.711504e-03   122944
  4.729644e-01   1.342890e+00   3.083007e-03   3.760979e-03   129902
  4.836049e-01   1.387588e+00   3.061727e-03   3.766770e-03   134944
  4.942158e-01   1.443385e+00   3.064979e-03   3.855188e-03   140952
  5.048213e-01   1.487971e+00   3.064662e-03   3.895371e-03   147072
  5.154342e-01   1.539261e+00   3.060800e-03   3.929676e-03   153382
  5.260893e-01   1.595017e+00   3.082622e-03   3.956566e-03   160952
  5.367508e-01   1.633072e+00   3.070294e-03   4.015162e-03   166640
  5.473579e-01   1.706366e+00   3.057153e-03   4.109255e-03   172448
  5.579787e-01   1.749242e+00   3.077577e-03   4.152291e-03   180594
  5.686178e-01   1.811876e+00   3.060710e-03   4.194293e-03   186556
  5.792219e-01   1.861194e+00   3.063394e-03   4.214331e-03   193528
  5.898242e-01   1.925148e+00   3.060684e-03   4.286541e-03   200626
  6.004609e-01   1.975283e+00   3.076604e-03   4.328458e-03   209256
  6.111150e-01   2.037866e+00   3.069663e-03   4.396170e-03   216020
  6.217510e-01   2.112438e+00   3.075746e-03   4.461112e-03   223768
  6.323610e-01   2.162497e+00   3.055783e-03   4.518808e-03   230234
  6.429887e-01   2.233056e+00   3.074922e-03   4.545734e-03   239800
  6.536248e-01   2.289045e+00   3.063054e-03   4.614122e-03   246568
  6.642393e-01   2.366535e+00   3.068328e-03   4.688152e-03   254828
  6.748534e-01   2.410009e+00   3.064424e-03   4.692483e-03   263074
  6.854951e-01   2.482028e+00   3.071509e-03   4.756407e-03   272312
  6.961385e-01   2.553164e+00   3.070197e-03   4.800985e-03   280376
  7.067732e-01   2.624278e+00   3.071500e-03   4.886735e-03   288884
  7.174012e-01   2.684566e+00   3.068501e-03   4.910128e-03   297602
  7.280177e-01   2.768431e+00   3.057614e-03   4.996705e-03   305520
  7.386402e-01   2.830101e+00   3.075198e-03   5.026689e-03   315976
  7.492461e-01   2.893275e+00   3.052723e-03   5.085918e-03   322778
  7.598720e-01   2.979552e+00   3.080021e-03   5.135804e-03   335372
  7.705286e-01   3.037976e+00   3.068318e-03   5.191919e-03   343464
  7.811635e-01   3.117188e+00   3.070705e-03   5.265381e-03   352912
  7.917934e-01   3.190798e+00   3.070498e-03   5.295770e-03   362666
  8.024224e-01   3.257300e+00   3.063690e-03   5.362501e-03   371884
  8.130465e-01   3.350895e+00   3.069929e-03   5.404620e-03   382280
  8.236583e-01   3.429675e+00   3.060755e-03   5.495143e-03   390888
  8.342648e-01   3.506300e+00   3.067168e-03   5.533225e-03   402234
  8.448912e-01   3.592544e+00   3.064832e-03   5.593061e-03   412576
  8.555263e-01   3.650692e+00   3.071788e-03   5.609167e-03   423732
  8.661590e-01   3.737181e+00   3.068142e-03   5.669187e-03   433624
  8.767950e-01   3.824036e+00   3.072203e-03   5.735001e-03   445154
  8.874347e-01   3.915800e+00   3.069139e-03   5.815221e-03   455584
  8.980596e-01   3.979612e+00   3.064716e-03   5.823502e-03   465588
  9.086714e-01   4.067437e+00   3.065163e-03   5.897201e-03   476762
  9.193048e-01   4.154534e+00   3.073106e-03   5.938655e-03   489552
  9.299472e-01   4.244021e+00   3.069632e-03   6.005278e-03   500328
  9.405628e-01   4.339035e+00   3.059261e-03   6.080435e-03   509852
  9.511854e-01   4.419020e+00   3.074339e-03   6.107174e-03   524234
  9.618189e-01   4.507349e+00   3.061952e-03   6.155883e-03   534104
  9.724448e-01   4.597357e+00   3.070528e-03   6.228791e-03   547048
  9.830800e-01   4.688299e+00   3.073862e-03   6.265785e-03   559328
  9.937180e-01   4.782417e+00   3.070866e-03   6.330192e-03   571326
  1.004339e+00   4.855085e+00   3.060367e-03   6.380952e-03   581920
  1.014951e+00   4.960177e+00   3.064588e-03   6.432691e-03   594832
  1.025571e+00   5.030311e+00   3.068054e-03   6.449655e-03   608048
  1.036206e+00   5.163470e+00   3.070252e-03   6.567163e-03   621526
  1.046839e+00   5.251789e+00   3.066112e-03   6.608179e-03   633240
  1.057456e+00   5.334242e+00   3.064953e-03   6.637938e-03   645472
  1.068086e+00   5.416979e+00   3.075342e-03   6.656577e-03   660906
  1.078726e+00   5.512886e+00   3.067576e-03   6.719144e-03   672856
  1.089356e+00   5.615165e+00   3.067094e-03   6.782188e-03   685980
  1.099980e+00   5.721968e+00   3.067978e-03   6.838803e-03   699256
  1.110619e+00   5.799231e+00   3.074976e-03   6.861603e-03   714730
  1.121246e+00   5.910557e+00   3.059348e-03   6.971195e-03   725152
  1.131863e+00   6.014358e+00   3.067634e-03   6.977799e-03   740420
  1.142485e+00   6.113698e+00   3.069089e-03   7.063554e-03   754312
  1.153114e+00   6.210282e+00   3.069897e-03   7.083211e-03   769114
  1.163749e+00   6.305652e+00   3.069209e-03   7.112312e-03   783488
  1.174365e+00   6.411357e+00   3.058900e-03   7.199764e-03   794968
  1.184981e+00   6.512297e+00   3.070107e-03   7.233065e-03   812366
  1.195609e+00   6.611853e+00   3.065134e-03   7.263692e-03   825976
  1.206250e+00   6.709454e+00   3.075220e-03   7.301279e-03   843352
  1.216898e+00   6.804147e+00   3.073224e-03   7.338345e-03   857280
  1.227524e+00   6.933594e+00   3.063189e-03   7.438577e-03   869542
  1.238147e+00   7.033299e+00   3.070752e-03   7.467326e-03   887128
  1.248772e+00   7.156640e+00   3.063166e-03   7.549876e-03   900032
  1.259388e+00   7.228721e+00   3.067377e-03   7.558102e-03   916560
  1.270005e+00   7.336362e+00   3.061783e-03   7.565374e-03   930922
  1.280635e+00   7.457760e+00   3.071795e-03   7.659476e-03   949844
  1.291287e+00   7.573985e+00   3.076939e-03   7.690696e-03   966736
  1.301925e+00   7.664739e+00   3.065819e-03   7.748849e-03   978776
  1.312537e+00   7.779627e+00   3.064137e-03   7.817550e-03   994522
  1.323161e+00   7.871139e+00   3.068907e-03   7.811152e-03   1012420
  1.333794e+00   8.000918e+00   3.071598e-03   7.903152e-03   1029408
  1.344410e+00   8.106310e+00   3.058405e-03   7.939703e-03   1041658
  1.355032e+00   8.205183e+00   3.072381e-03   7.945231e-03   1063520
  1.365659e+00   8.332514e+00   3.060689e-03   8.028586e-03   1075808
  1.376294e+00   8.434306e+00   3.080019e-03   8.055290e-03   1098956
  1.386928e+00   8.555269e+00   3.061670e-03   8.125210e-03   1109810
  1.397545e+00   8.659847e+00   3.065288e-03   8.149726e-03   1128608
  1.408178e+00   8.767894e+00   3.073589e-03   8.180635e-03   1148264
  1.418813e+00   8.868215e+00   3.067917e-03   8.223865e-03   1163252
  1.429436e+00   8.999665e+00   3.067070e-03   8.275650e-03   1181042
  1.440060e+00   9.103469e+00   3.064325e-03   8.315944e-03   1197848
  1.450692e+00   9.212209e+00   3.073737e-03   8.348574e-03   1218848
  1.461323e+00   9.326675e+00   3.064859e-03   8.399352e-03   1232916
  1.471945e+00   9.461271e+00   3.068844e-03   8.457047e-03   1253002
  1.482566e+00   9.562654e+00   3.062284e-03   8.505206e-03   1268576
  1.493191e+00   9.661519e+00   3.071552e-03   8.497506e-03   1290128
  1.503822e+00   9.776487e+00   3.068342e-03   8.553564e-03   1307402
  1.514455e+00   9.900646e+00   3.069122e-03   8.598467e-03   1327028
  1.525083e+00   1.000214e+01   3.064970e-03   8.620780e-03   1343648
  1.535711e+00   1.011487e+01   3.070217e-03   8.660060e-03   1364096
  1.546341e+00   1.024825e+01   3.068950e-03   8.726375e-03   1382730
  1.556974e+00   1.034314e+01   3.068757e-03   8.730820e-03   1402164
  1.567604e+00   1.045233e+01   3.068159e-03   8.780203e-03   1420464
  1.578221e+00   1.056821e+01   3.063798e-03   8.828236e-03   1437368
  1.588847e+00   1.068328e+01   3.072142e-03   8.852889e-03   1461530
  1.599480e+00   1.080420e+01   3.065069e-03   8.879096e-03   1478264
  1.610108e+00   1.090862e+01   3.068902e-03   8.897381e-03   1499356
  1.620732e+00   1.102882e+01   3.065238e-03   8.957326e-03   1517016
  1.631360e+00   1.112877e+01   3.070849e-03   8.964904e-03   1540090
  1.641988e+00   1.119936e+01   3.065366e-03   8.977436e-03   1557360
  1.652609e+00   1.140508e+01   3.066926e-03   9.086189e-03   1577780
  1.663242e+00   1.147471e+01   3.075107e-03   9.064536e-03   1602578
  1.673875e+00   1.159005e+01   3.063542e-03   9.097282e-03   1617672
  1.684498e+00   1.171887e+01   3.069033e-03   9.150252e-03   1641016
  1.695122e+00   1.181650e+01   3.065080e-03   9.170287e-03   1659416
  1.705746e+00   1.192120e+01   3.068431e-03   9.185741e-03   1682670
  1.716382e+00   1.204445e+01   3.070690e-03   9.231750e-03   1705256
  1.727024e+00   1.216029e+01   3.071890e-03   9.259906e-03   1726312
  1.737645e+00   1.229161e+01   3.062639e-03   9.320157e-03   1741880
  1.748261e+00   1.236497e+01   3.067156e-03   9.308697e-03   1766454
  1.758897e+00   1.248624e+01   3.073105e-03   9.325566e-03   1791784
  1.769528e+00   1.264246e+01   3.063894e-03   9.415908e-03   1807712
  1.780139e+00   1.274537e+01   3.062775e-03   9.439725e-03   1829002
  1.790759e+00   1.285433e+01   3.067263e-03   9.449804e-03   1854216
  1.801400e+00   1.295733e+01   3.074631e-03   9.443288e-03   1880156
  1.812037e+00   1.307121e+01   3.068349e-03   9.479949e-03   1897568
  1.822663e+00   1.318522e+01   3.068475e-03   9.504294e-03   1920458
  1.833288e+00   1.328093e+01   3.065997e-03   9.539378e-03   1942208
  1.843915e+00   1.339502e+01   3.067813e-03   9.559229e-03   1965612
  1.854544e+00   1.351280e+01   3.069639e-03   9.593861e-03   1989000
  1.865168e+00   1.362020e+01   3.064465e-03   9.599175e-03   2009114
  1.875791e+00   1.372635e+01   3.067400e-03   9.615353e-03   2034464
  1.886424e+00   1.381841e+01   3.070174e-03   9.635855e-03   2058476
  1.897052e+00   1.394947e+01   3.068039e-03   9.659749e-03   2079648
  1.907673e+00   1.404194e+01   3.065891e-03   9.677396e-03   2102578
  1.918306e+00   1.417255e+01   3.070742e-03   9.720758e-03   2129928
  1.928942e+00   1.427905e+01   3.069733e-03   9.733211e-03   2152096
  1.939563e+00   1.437694e+01   3.062858e-03   9.752153e-03   2171142
  1.950185e+00   1.451359e+01   3.069150e-03   9.784114e-03   2200248
  1.960824e+00   1.460109e+01   3.071017e-03   9.785090e-03   2225216
  1.971460e+00   1.472237e+01   3.070942e-03   9.827379e-03   2248448
  1.982084e+00   1.482216e+01   3.064272e-03   9.842110e-03   2267942
  1.992710e+00   1.493999e+01   3.071051e-03   9.853540e-03   2298072
  2.003337e+00   1.499729e+01   3.064068e-03   9.856186e-03   2317272
  2.013961e+00   1.513643e+01   3.069747e-03   9.887527e-03   2345808
  2.024580e+00   1.524079e+01   3.062469e-03   9.912361e-03   2365650
  2.035206e+00   1.532645e+01   3.069930e-03   9.905594e-03   2396940
  2.045842e+00   1.547463e+01   3.069936e-03   9.958702e-03   2421272
  2.056473e+00   1.556962e+01   3.068399e-03   9.945765e-03   2444576
  2.067102e+00   1.562941e+01   3.069748e-03   9.943560e-03   2471490
  2.077728e+00   1.576886e+01   3.064854e-03   9.988449e-03   2493180
  2.088349e+00   1.588453e+01   3.068019e-03   1.001242e-02   2520952
  2.098972e+00   1.594833e+01   3.065319e-03   9.994020e-03   2544946
  2.109598e+00   1.604789e+01   3.068311e-03   1.000885e-02   2573856
  2.120230e+00   1.617598e+01   3.069026e-03   1.004120e-02   2600016
  2.130862e+00   1.626371e+01   3.069102e-03   1.004068e-02   2625484
  2.141490e+00   1.635822e+01   3.068080e-03   1.004736e-02   2651122
  2.152130e+00   1.647353e+01   3.074348e-03   1.005041e-02   2683488
  2.162754e+00   1.658117e+01   3.059466e-03   1.009782e-02   2696352
  2.173371e+00   1.664788e+01   3.071171e-03   1.008161e-02   2733020
  2.184002e+00   1.672777e+01   3.067530e-03   1.006423e-02   2757378
  2.194631e+00   1.688454e+01   3.067942e-03   1.011556e-02   2784864
  2.205259e+00   1.695446e+01   3.067811e-03   1.011766e-02   2811168
  2.215874e+00   1.705316e+01   3.061061e-03   1.014725e-02   2832274
  2.226505e+00   1.715850e+01   3.075611e-03   1.011756e-02   2873636
  2.237142e+00   1.722952e+01   3.064877e-03   1.013849e-02   2890496
  2.247766e+00   1.731904e+01   3.069851e-03   1.012313e-02   2921800
  2.258399e+00   1.741580e+01   3.071101e-03   1.013967e-02   2951298
  2.269032e+00   1.751917e+01   3.066274e-03   1.015595e-02   2975476
  2.279663e+00   1.762922e+01   3.071375e-03   1.016543e-02   3007728
  2.290285e+00   1.770845e+01   3.061886e-03   1.018097e-02   3025776
  2.300910e+00   1.779906e+01   3.072955e-03   1.017382e-02   3065762
  2.311540e+00   1.791310e+01   3.063208e-03   1.020937e-02   3084856
  2.322162e+00   1.798082e+01   3.068985e-03   1.017774e-02   3118044
  2.332782e+00   1.808434e+01   3.064319e-03   1.019052e-02   3141352
  2.343410e+00   1.815107e+01   3.072036e-03   1.018470e-02   3179274
  2.354046e+00   1.825805e+01   3.067682e-03   1.020039e-02   3204120
  2.364668e+00   1.831420e+01   3.063610e-03   1.019331e-02   3227900
  2.375288e+00   1.841944e+01   3.068722e-03   1.019413e-02   3262394
  2.385925e+00   1.849286e+01   3.071814e-03   1.018482e-02   3295680
  2.396559e+00   1.859011e+01   3.067166e-03   1.020920e-02   3319560
  2.407184e+00   1.868029e+01   3.068070e-03   1.020376e-02   3348972
  2.417810e+00   1.874624e+01   3.068540e-03   1.019966e-02   3379722
  2.428441e+00   1.884017e+01   3.068348e-03   1.020365e-02   3410720
  2.439075e+00   1.892641e+01   3.069517e-03   1.020099e-02   3441504
  2.449697e+00   1.900558e+01   3.063301e-03   1.020535e-02   3463624
  2.460317e+00   1.909612e+01   3.068043e-03   1.020850e-02   3499790
  2.470951e+00   1.917397e+01   3.070702e-03   1.019249e-02   3533560
  2.481588e+00   1.923659e+01   3.069830e-03   1.019780e-02   3561920
  2.492209e+00   1.930227e+01   3.064208e-03   1.019552e-02   3585208
  2.502830e+00   1.938567e+01   3.069185e-03   1.019095e-02   3622518
  2.513468e+00   1.946627e+01   3.072344e-03   1.016426e-02   3657584
  2.524094e+00   1.955539e+01   3.062507e-03   1.019875e-02   3676440
  2.534707e+00   1.962558e+01   3.065232e-03   1.019465e-02   3711282
  2.545334e+00   1.970765e+01   3.068763e-03   1.018552e-02   3747696
  2.555965e+00   1.980153e+01   3.067225e-03   1.018149e-02   3776188
  2.566601e+00   1.985184e+01   3.074483e-03   1.016860e-02   3815304
  2.577232e+00   1.992052e+01   3.064660e-03   1.017609e-02   3835370
  2.587856e+00   1.999126e+01   3.068926e-03   1.015464e-02   3873424
  2.598487e+00   2.004943e+01   3.067978e-03   1.015517e-02   3903420
  2.609117e+00   2.011872e+01   3.070036e-03   1.014106e-02   3937624
  2.619745e+00   2.020663e+01   3.066011e-03   1.013678e-02   3965658
  2.630375e+00   2.027250e+01   3.069802e-03   1.013295e-02   4002984
  2.641001e+00   2.032581e+01   3.065136e-03   1.013850e-02   4027928
  2.651616e+00   2.039698e+01   3.064941e-03   1.010968e-02   4059844
  2.662241e+00   2.048086e+01   3.069945e-03   1.009904e-02   4100338
  2.672876e+00   2.053424e+01   3.069128e-03   1.010544e-02   4132264
  2.683506e+00   2.061065e+01   3.068474e-03   1.010275e-02   4163216
  2.694131e+00   2.066497e+01   3.066146e-03   1.009530e-02   4193350
  2.704761e+00   2.076514e+01   3.071068e-03   1.009204e-02   4234456
  2.715390e+00   2.079611e+01   3.064079e-03   1.008803e-02   4257264
  2.726012e+00   2.086698e+01   3.069774e-03   1.007355e-02   4297352
  2.736640e+00   2.094305e+01   3.067495e-03   1.006276e-02   4328642
  2.747272e+00   2.096381e+01   3.070663e-03   1.002112e-02   4367948
  2.757895e+00   2.104988e+01   3.061799e-03   1.004802e-02   4388384
  2.768519e+00   2.109068e+01   3.072247e-03   1.000852e-02   4436648
  2.779154e+00   2.114511e+01   3.067997e-03   1.000834e-02   4465658
  2.789787e+00   2.122169e+01   3.069677e-03   1.000041e-02   4502948
  2.800413e+00   2.128075e+01   3.064787e-03   1.000515e-02   4528880
  2.811033e+00   2.129690e+01   3.067181e-03   9.974311e-03   4566290
  2.821663e+00   2.140292e+01   3.070655e-03   9.974628e-03   4606856
  2.832293e+00   2.145344e+01   3.066552e-03   9.983011e-03   4635380
  2.842916e+00   2.146980e+01   3.067131e-03   9.931428e-03   4670384
  2.853543e+00   2.153963e+01   3.069161e-03   9.922390e-03   4709258
  2.864179e+00   2.158079e+01   3.070324e-03   9.897030e-03   4747352
  2.874805e+00   2.165537e+01   3.063655e-03   9.909335e-03   4771664
  2.885427e+00   2.170261e+01   3.068600e-03   9.892877e-03   4813532
  2.896058e+00   2.173263e+01   3.070437e-03   9.863302e-03   4852322
  2.906693e+00   2.178291e+01   3.069013e-03   9.869500e-03   4886480
  2.917320e+00   2.184308e+01   3.066289e-03   9.851703e-03   4917248
  2.927939e+00   2.188331e+01   3.065099e-03   9.839613e-03   4950828
  2.938569e+00   2.193132e+01   3.072788e-03   9.807345e-03   5000170
  2.949204e+00   2.198635e+01   3.066857e-03   9.814483e-03   5026952
  2.959825e+00   2.202982e+01   3.064676e-03   9.794171e-03   5058752
  2.970445e+00   2.209447e+01   3.067741e-03   9.776864e-03   5100722
  2.981076e+00   2.209978e+01   3.068979e-03   9.743257e-03   5140124
  2.991706e+00   2.215823e+01   3.067937e-03   9.745959e-03   5174072
  3.002335e+00   2.220206e+01   3.068928e-03   9.715944e-03   5211608
  3.012962e+00   2.222392e+01   3.067917e-03   9.705789e-03   5247794
  3.023589e+00   2.228433e+01   3.066908e-03   9.696923e-03   5284196
  3.034222e+00   2.231365e+01   3.071657e-03   9.655970e-03   5328800
