# power spectrum of delta_N
# redshift z=2.291371
# k              Pk             sigma(k)       sigma(Pk)      count
  7.830312e-03   3.421191e-05   1.198114e-03   6.653052e-06   18
  1.686348e-02   9.324232e-04   2.897918e-03   1.008191e-04   152
  2.725284e-02   3.408152e-03   3.060867e-03   1.581162e-04   416
  3.742835e-02   6.895172e-03   2.912555e-03   2.659398e-04   770
  4.808679e-02   1.158004e-02   3.119650e-03   3.273441e-04   1364
  5.876109e-02   1.719187e-02   3.054550e-03   3.951211e-04   1976
  6.939824e-02   2.538421e-02   3.112555e-03   4.884920e-04   2792
  7.984642e-02   3.244470e-02   2.971805e-03   5.572103e-04   3578
  9.038229e-02   3.844814e-02   3.049521e-03   5.672467e-04   4724
  1.011318e-01   4.451342e-02   3.134595e-03   5.826280e-04   6032
  1.117485e-01   5.203929e-02   3.016599e-03   6.339373e-04   7072
  1.222702e-01   6.298005e-02   3.056387e-03   6.956766e-04   8634
  1.329722e-01   7.466420e-02   3.095256e-03   7.425574e-04   10336
  1.436677e-01   8.222911e-02   3.082009e-03   7.421471e-04   11940
  1.541872e-01   8.743215e-02   3.021465e-03   7.641712e-04   13490
  1.647185e-01   9.460197e-02   3.054444e-03   7.497929e-04   15656
  1.754149e-01   1.030553e-01   3.102608e-03   7.732723e-04   18008
  1.860920e-01   1.151711e-01   3.069464e-03   8.134728e-04   19964
  1.966957e-01   1.255225e-01   3.066093e-03   8.427841e-04   22354
  2.072851e-01   1.321488e-01   3.030819e-03   8.444513e-04   24648
  2.179134e-01   1.392329e-01   3.083109e-03   8.362193e-04   27592
  2.285517e-01   1.467445e-01   3.075318e-03   8.398386e-04   30152
  2.391687e-01   1.559974e-01   3.069056e-03   8.591229e-04   33046
  2.497808e-01   1.690385e-01   3.053846e-03   8.968919e-04   35992
  2.604233e-01   1.795673e-01   3.074764e-03   9.076380e-04   39304
  2.710722e-01   1.910324e-01   3.082145e-03   9.205825e-04   42608
  2.817050e-01   1.964286e-01   3.058267e-03   9.242384e-04   45758
  2.923349e-01   2.036586e-01   3.072286e-03   9.258460e-04   49536
  3.029238e-01   2.136244e-01   3.039208e-03   9.386404e-04   52488
  3.135134e-01   2.263023e-01   3.084628e-03   9.521760e-04   57034
  3.241511e-01   2.310478e-01   3.061146e-03   9.378547e-04   60648
  3.347969e-01   2.435457e-01   3.076329e-03   9.591620e-04   65044
  3.454223e-01   2.549533e-01   3.057760e-03   9.675386e-04   68720
  3.560505e-01   2.618191e-01   3.078281e-03   9.641649e-04   73538
  3.667175e-01   2.714955e-01   3.076939e-03   9.718162e-04   78080
  3.773260e-01   2.834184e-01   3.039859e-03   9.914818e-04   81572
  3.879192e-01   2.940488e-01   3.081238e-03   9.934430e-04   87248
  3.985882e-01   3.027598e-01   3.084591e-03   9.987444e-04   92266
  4.092322e-01   3.138128e-01   3.063169e-03   1.012990e-03   96696
  4.198039e-01   3.230922e-01   3.037602e-03   1.021658e-03   100904
  4.303789e-01   3.327452e-01   3.065517e-03   1.026347e-03   107036
  4.410480e-01   3.445465e-01   3.089487e-03   1.025542e-03   113362
  4.517307e-01   3.536406e-01   3.072092e-03   1.030454e-03   118176
  4.623378e-01   3.657885e-01   3.054661e-03   1.050522e-03   122944
  4.729644e-01   3.763054e-01   3.083007e-03   1.044683e-03   129902
  4.836049e-01   3.827716e-01   3.061727e-03   1.040447e-03   134944
  4.942158e-01   3.974613e-01   3.064979e-03   1.061991e-03   140952
  5.048213e-01   4.043310e-01   3.064662e-03   1.063048e-03   147072
  5.154342e-01   4.159637e-01   3.060800e-03   1.060102e-03   153382
  5.260893e-01   4.291842e-01   3.082622e-03   1.062299e-03   160952
  5.367508e-01   4.385397e-01   3.070294e-03   1.072353e-03   166640
  5.473579e-01   4.500001e-01   3.057153e-03   1.090445e-03   172448
  5.579787e-01   4.610545e-01   3.077577e-03   1.083408e-03   180594
  5.686178e-01   4.715785e-01   3.060710e-03   1.086151e-03   186556
  5.792219e-01   4.830040e-01   3.063394e-03   1.103950e-03   193528
  5.898242e-01   4.968510e-01   3.060684e-03   1.109020e-03   200626
  6.004609e-01   5.060217e-01   3.076604e-03   1.111154e-03   209256
  6.111150e-01   5.204041e-01   3.069663e-03   1.120065e-03   216020
  6.217510e-01   5.319383e-01   3.075746e-03   1.122798e-03   223768
  6.323610e-01   5.397572e-01   3.055783e-03   1.125611e-03   230234
  6.429887e-01   5.534907e-01   3.074922e-03   1.133648e-03   239800
  6.536248e-01   5.650202e-01   3.063054e-03   1.136542e-03   246568
  6.642393e-01   5.790833e-01   3.068328e-03   1.143998e-03   254828
  6.748534e-01   5.893148e-01   3.064424e-03   1.146601e-03   263074
  6.854951e-01   5.999202e-01   3.071509e-03   1.150099e-03   272312
  6.961385e-01   6.125885e-01   3.070197e-03   1.159281e-03   280376
  7.067732e-01   6.269976e-01   3.071500e-03   1.170470e-03   288884
  7.174012e-01   6.356747e-01   3.068501e-03   1.164049e-03   297602
  7.280177e-01   6.536486e-01   3.057614e-03   1.182495e-03   305520
  7.386402e-01   6.637413e-01   3.075198e-03   1.179980e-03   315976
  7.492461e-01   6.738393e-01   3.052723e-03   1.185002e-03   322778
  7.598720e-01   6.925232e-01   3.080021e-03   1.197791e-03   335372
  7.705286e-01   6.996194e-01   3.068318e-03   1.195202e-03   343464
  7.811635e-01   7.117444e-01   3.070705e-03   1.193697e-03   352912
  7.917934e-01   7.269261e-01   3.070498e-03   1.207754e-03   362666
  8.024224e-01   7.436170e-01   3.063690e-03   1.219141e-03   371884
  8.130465e-01   7.529196e-01   3.069929e-03   1.218771e-03   382280
  8.236583e-01   7.674328e-01   3.060755e-03   1.222693e-03   390888
  8.342648e-01   7.798162e-01   3.067168e-03   1.230079e-03   402234
  8.448912e-01   7.970282e-01   3.064832e-03   1.240333e-03   412576
  8.555263e-01   8.052921e-01   3.071788e-03   1.237893e-03   423732
  8.661590e-01   8.215978e-01   3.068142e-03   1.249201e-03   433624
  8.767950e-01   8.344068e-01   3.072203e-03   1.250052e-03   445154
  8.874347e-01   8.463276e-01   3.069139e-03   1.254890e-03   455584
  8.980596e-01   8.595932e-01   3.064716e-03   1.259791e-03   465588
  9.086714e-01   8.710241e-01   3.065163e-03   1.257601e-03   476762
  9.193048e-01   8.878250e-01   3.073106e-03   1.265889e-03   489552
  9.299472e-01   9.036005e-01   3.069632e-03   1.280499e-03   500328
  9.405628e-01   9.172149e-01   3.059261e-03   1.283111e-03   509852
  9.511854e-01   9.299264e-01   3.074339e-03   1.288984e-03   524234
  9.618189e-01   9.453160e-01   3.061952e-03   1.293255e-03   534104
  9.724448e-01   9.564916e-01   3.070528e-03   1.293899e-03   547048
  9.830800e-01   9.742976e-01   3.073862e-03   1.305419e-03   559328
  9.937180e-01   9.879873e-01   3.070866e-03   1.305486e-03   571326
  1.004339e+00   1.004190e+00   3.060367e-03   1.312511e-03   581920
  1.014951e+00   1.016059e+00   3.064588e-03   1.319289e-03   594832
  1.025571e+00   1.033069e+00   3.068054e-03   1.322483e-03   608048
  1.036206e+00   1.045306e+00   3.070252e-03   1.323914e-03   621526
  1.046839e+00   1.058853e+00   3.066112e-03   1.328917e-03   633240
  1.057456e+00   1.075622e+00   3.064953e-03   1.337270e-03   645472
  1.068086e+00   1.093711e+00   3.075342e-03   1.344314e-03   660906
  1.078726e+00   1.108661e+00   3.067576e-03   1.355248e-03   672856
  1.089356e+00   1.120401e+00   3.067094e-03   1.354698e-03   685980
  1.099980e+00   1.136515e+00   3.067978e-03   1.361602e-03   699256
  1.110619e+00   1.149334e+00   3.074976e-03   1.358233e-03   714730
  1.121246e+00   1.164454e+00   3.059348e-03   1.367002e-03   725152
  1.131863e+00   1.180481e+00   3.067634e-03   1.376017e-03   740420
  1.142485e+00   1.194324e+00   3.069089e-03   1.378139e-03   754312
  1.153114e+00   1.210855e+00   3.069897e-03   1.383769e-03   769114
  1.163749e+00   1.231545e+00   3.069209e-03   1.387824e-03   783488
  1.174365e+00   1.242150e+00   3.058900e-03   1.390638e-03   794968
  1.184981e+00   1.262231e+00   3.070107e-03   1.401567e-03   812366
  1.195609e+00   1.277073e+00   3.065134e-03   1.406532e-03   825976
  1.206250e+00   1.292808e+00   3.075220e-03   1.406022e-03   843352
  1.216898e+00   1.311372e+00   3.073224e-03   1.416795e-03   857280
  1.227524e+00   1.327623e+00   3.063189e-03   1.426066e-03   869542
  1.238147e+00   1.343316e+00   3.070752e-03   1.426899e-03   887128
  1.248772e+00   1.358612e+00   3.063166e-03   1.432458e-03   900032
  1.259388e+00   1.370809e+00   3.067377e-03   1.430867e-03   916560
  1.270005e+00   1.386821e+00   3.061783e-03   1.440342e-03   930922
  1.280635e+00   1.404887e+00   3.071795e-03   1.438518e-03   949844
  1.291287e+00   1.422823e+00   3.076939e-03   1.446175e-03   966736
  1.301925e+00   1.441359e+00   3.065819e-03   1.455328e-03   978776
  1.312537e+00   1.458472e+00   3.064137e-03   1.466881e-03   994522
  1.323161e+00   1.471229e+00   3.068907e-03   1.465401e-03   1012420
  1.333794e+00   1.490935e+00   3.071598e-03   1.471518e-03   1029408
  1.344410e+00   1.507317e+00   3.058405e-03   1.477229e-03   1041658
  1.355032e+00   1.522850e+00   3.072381e-03   1.478952e-03   1063520
  1.365659e+00   1.538650e+00   3.060689e-03   1.481946e-03   1075808
  1.376294e+00   1.558995e+00   3.080019e-03   1.488674e-03   1098956
  1.386928e+00   1.574692e+00   3.061670e-03   1.496182e-03   1109810
  1.397545e+00   1.595424e+00   3.065288e-03   1.502414e-03   1128608
  1.408178e+00   1.611913e+00   3.073589e-03   1.505657e-03   1148264
  1.418813e+00   1.628079e+00   3.067917e-03   1.512781e-03   1163252
  1.429436e+00   1.644555e+00   3.067070e-03   1.513159e-03   1181042
  1.440060e+00   1.661909e+00   3.064325e-03   1.519256e-03   1197848
  1.450692e+00   1.679539e+00   3.073737e-03   1.521829e-03   1218848
  1.461323e+00   1.696472e+00   3.064859e-03   1.529258e-03   1232916
  1.471945e+00   1.714248e+00   3.068844e-03   1.527714e-03   1253002
  1.482566e+00   1.728645e+00   3.062284e-03   1.533645e-03   1268576
  1.493191e+00   1.750495e+00   3.071552e-03   1.542926e-03   1290128
  1.503822e+00   1.770739e+00   3.068342e-03   1.549809e-03   1307402
  1.514455e+00   1.783079e+00   3.069122e-03   1.549903e-03   1327028
  1.525083e+00   1.800473e+00   3.064970e-03   1.550910e-03   1343648
  1.535711e+00   1.823875e+00   3.070217e-03   1.562583e-03   1364096
  1.546341e+00   1.839320e+00   3.068950e-03   1.564147e-03   1382730
  1.556974e+00   1.854866e+00   3.068757e-03   1.565122e-03   1402164
  1.567604e+00   1.874655e+00   3.068159e-03   1.576359e-03   1420464
  1.578221e+00   1.889457e+00   3.063798e-03   1.580298e-03   1437368
  1.588847e+00   1.913378e+00   3.072142e-03   1.580986e-03   1461530
  1.599480e+00   1.926618e+00   3.065069e-03   1.582126e-03   1478264
  1.610108e+00   1.947947e+00   3.068902e-03   1.590841e-03   1499356
  1.620732e+00   1.960728e+00   3.065238e-03   1.594509e-03   1517016
  1.631360e+00   1.984833e+00   3.070849e-03   1.601128e-03   1540090
  1.641988e+00   2.001606e+00   3.065366e-03   1.604688e-03   1557360
  1.652609e+00   2.016932e+00   3.066926e-03   1.607580e-03   1577780
  1.663242e+00   2.038642e+00   3.075107e-03   1.613458e-03   1602578
  1.673875e+00   2.056922e+00   3.063542e-03   1.614402e-03   1617672
  1.684498e+00   2.077978e+00   3.069033e-03   1.621558e-03   1641016
  1.695122e+00   2.094359e+00   3.065080e-03   1.627263e-03   1659416
  1.705746e+00   2.111533e+00   3.068431e-03   1.627762e-03   1682670
  1.716382e+00   2.130616e+00   3.070690e-03   1.631976e-03   1705256
  1.727024e+00   2.147729e+00   3.071890e-03   1.635931e-03   1726312
  1.737645e+00   2.165662e+00   3.062639e-03   1.643312e-03   1741880
  1.748261e+00   2.187094e+00   3.067156e-03   1.646529e-03   1766454
  1.758897e+00   2.207883e+00   3.073105e-03   1.647366e-03   1791784
  1.769528e+00   2.228324e+00   3.063894e-03   1.661207e-03   1807712
  1.780139e+00   2.244686e+00   3.062775e-03   1.660624e-03   1829002
  1.790759e+00   2.259508e+00   3.067263e-03   1.663183e-03   1854216
  1.801400e+00   2.281513e+00   3.074631e-03   1.666032e-03   1880156
  1.812037e+00   2.295726e+00   3.068349e-03   1.669475e-03   1897568
  1.822663e+00   2.322096e+00   3.068475e-03   1.673949e-03   1920458
  1.833288e+00   2.338974e+00   3.065997e-03   1.679924e-03   1942208
  1.843915e+00   2.360497e+00   3.067813e-03   1.685377e-03   1965612
  1.854544e+00   2.377358e+00   3.069639e-03   1.685726e-03   1989000
  1.865168e+00   2.394451e+00   3.064465e-03   1.688448e-03   2009114
  1.875791e+00   2.412762e+00   3.067400e-03   1.690683e-03   2034464
  1.886424e+00   2.433285e+00   3.070174e-03   1.698455e-03   2058476
  1.897052e+00   2.451603e+00   3.068039e-03   1.701194e-03   2079648
  1.907673e+00   2.471523e+00   3.065891e-03   1.704932e-03   2102578
  1.918306e+00   2.490141e+00   3.070742e-03   1.707295e-03   2129928
  1.928942e+00   2.511979e+00   3.069733e-03   1.715142e-03   2152096
  1.939563e+00   2.533421e+00   3.062858e-03   1.721057e-03   2171142
  1.950185e+00   2.554902e+00   3.069150e-03   1.722318e-03   2200248
  1.960824e+00   2.564825e+00   3.071017e-03   1.717345e-03   2225216
  1.971460e+00   2.585738e+00   3.070942e-03   1.723835e-03   2248448
  1.982084e+00   2.608273e+00   3.064272e-03   1.732343e-03   2267942
  1.992710e+00   2.627807e+00   3.071051e-03   1.732895e-03   2298072
  2.003337e+00   2.648612e+00   3.064068e-03   1.743261e-03   2317272
  2.013961e+00   2.664976e+00   3.069747e-03   1.740465e-03   2345808
  2.024580e+00   2.681872e+00   3.062469e-03   1.745934e-03   2365650
  2.035206e+00   2.706441e+00   3.069930e-03   1.751298e-03   2396940
  2.045842e+00   2.722436e+00   3.069936e-03   1.748153e-03   2421272
  2.056473e+00   2.746034e+00   3.068399e-03   1.757426e-03   2444576
  2.067102e+00   2.762436e+00   3.069748e-03   1.759538e-03   2471490
  2.077728e+00   2.780960e+00   3.064854e-03   1.762015e-03   2493180
  2.088349e+00   2.801500e+00   3.068019e-03   1.764030e-03   2520952
  2.098972e+00   2.821150e+00   3.065319e-03   1.769756e-03   2544946
  2.109598e+00   2.837797e+00   3.068311e-03   1.772890e-03   2573856
  2.120230e+00   2.860222e+00   3.069026e-03   1.775196e-03   2600016
  2.130862e+00   2.880684e+00   3.069102e-03   1.780090e-03   2625484
  2.141490e+00   2.898771e+00   3.068080e-03   1.782166e-03   2651122
  2.152130e+00   2.917811e+00   3.074348e-03   1.779051e-03   2683488
  2.162754e+00   2.938405e+00   3.059466e-03   1.790723e-03   2696352
  2.173371e+00   2.953376e+00   3.071171e-03   1.788747e-03   2733020
  2.184002e+00   2.974377e+00   3.067530e-03   1.794543e-03   2757378
  2.194631e+00   3.000505e+00   3.067942e-03   1.798310e-03   2784864
  2.205259e+00   3.015031e+00   3.067811e-03   1.798403e-03   2811168
  2.215874e+00   3.035472e+00   3.061061e-03   1.805293e-03   2832274
  2.226505e+00   3.056268e+00   3.075611e-03   1.805574e-03   2873636
  2.237142e+00   3.076067e+00   3.064877e-03   1.810250e-03   2890496
  2.247766e+00   3.091861e+00   3.069851e-03   1.808664e-03   2921800
  2.258399e+00   3.113629e+00   3.071101e-03   1.812917e-03   2951298
  2.269032e+00   3.133853e+00   3.066274e-03   1.818609e-03   2975476
  2.279663e+00   3.151794e+00   3.071375e-03   1.815622e-03   3007728
  2.290285e+00   3.172496e+00   3.061886e-03   1.825181e-03   3025776
  2.300910e+00   3.193412e+00   3.072955e-03   1.827077e-03   3065762
  2.311540e+00   3.210389e+00   3.063208e-03   1.828482e-03   3084856
  2.322162e+00   3.227716e+00   3.068985e-03   1.829508e-03   3118044
  2.332782e+00   3.247400e+00   3.064319e-03   1.833885e-03   3141352
  2.343410e+00   3.272459e+00   3.072036e-03   1.837847e-03   3179274
  2.354046e+00   3.284915e+00   3.067682e-03   1.836895e-03   3204120
  2.364668e+00   3.306771e+00   3.063610e-03   1.843268e-03   3227900
  2.375288e+00   3.329330e+00   3.068722e-03   1.843576e-03   3262394
  2.385925e+00   3.340615e+00   3.071814e-03   1.840595e-03   3295680
  2.396559e+00   3.359797e+00   3.067166e-03   1.843080e-03   3319560
  2.407184e+00   3.386026e+00   3.068070e-03   1.850565e-03   3348972
  2.417810e+00   3.401876e+00   3.068540e-03   1.853505e-03   3379722
  2.428441e+00   3.420599e+00   3.068348e-03   1.853347e-03   3410720
  2.439075e+00   3.443328e+00   3.069517e-03   1.857952e-03   3441504
  2.449697e+00   3.460898e+00   3.063301e-03   1.860010e-03   3463624
  2.460317e+00   3.477327e+00   3.068043e-03   1.859688e-03   3499790
  2.470951e+00   3.495982e+00   3.070702e-03   1.862930e-03   3533560
  2.481588e+00   3.514571e+00   3.069830e-03   1.864465e-03   3561920
  2.492209e+00   3.532712e+00   3.064208e-03   1.868624e-03   3585208
  2.502830e+00   3.551738e+00   3.069185e-03   1.866859e-03   3622518
  2.513468e+00   3.572968e+00   3.072344e-03   1.869320e-03   3657584
  2.524094e+00   3.589848e+00   3.062507e-03   1.875358e-03   3676440
  2.534707e+00   3.607802e+00   3.065232e-03   1.874168e-03   3711282
  2.545334e+00   3.634329e+00   3.068763e-03   1.879359e-03   3747696
  2.555965e+00   3.650495e+00   3.067225e-03   1.879571e-03   3776188
  2.566601e+00   3.671789e+00   3.074483e-03   1.879529e-03   3815304
  2.577232e+00   3.685248e+00   3.064660e-03   1.884375e-03   3835370
  2.587856e+00   3.703688e+00   3.068926e-03   1.883644e-03   3873424
  2.598487e+00   3.726352e+00   3.067978e-03   1.887631e-03   3903420
  2.609117e+00   3.745918e+00   3.070036e-03   1.890234e-03   3937624
  2.619745e+00   3.759819e+00   3.066011e-03   1.890304e-03   3965658
  2.630375e+00   3.777559e+00   3.069802e-03   1.887166e-03   4002984
  2.641001e+00   3.795621e+00   3.065136e-03   1.893910e-03   4027928
  2.651616e+00   3.809749e+00   3.064941e-03   1.891455e-03   4059844
  2.662241e+00   3.838579e+00   3.069945e-03   1.897847e-03   4100338
  2.672876e+00   3.850190e+00   3.069128e-03   1.894472e-03   4132264
  2.683506e+00   3.864300e+00   3.068474e-03   1.894455e-03   4163216
  2.694131e+00   3.889411e+00   3.066146e-03   1.901462e-03   4193350
  2.704761e+00   3.904504e+00   3.071068e-03   1.898627e-03   4234456
  2.715390e+00   3.926996e+00   3.064079e-03   1.904715e-03   4257264
  2.726012e+00   3.942462e+00   3.069774e-03   1.900959e-03   4297352
  2.736640e+00   3.957674e+00   3.067495e-03   1.904697e-03   4328642
  2.747272e+00   3.979915e+00   3.070663e-03   1.904717e-03   4367948
  2.757895e+00   3.992865e+00   3.061799e-03   1.905304e-03   4388384
  2.768519e+00   4.012819e+00   3.072247e-03   1.908711e-03   4436648
  2.779154e+00   4.032015e+00   3.067997e-03   1.909567e-03   4465658
  2.789787e+00   4.048249e+00   3.069677e-03   1.910009e-03   4502948
  2.800413e+00   4.062863e+00   3.064787e-03   1.911458e-03   4528880
  2.811033e+00   4.085870e+00   3.067181e-03   1.912537e-03   4566290
  2.821663e+00   4.104343e+00   3.070655e-03   1.914118e-03   4606856
  2.832293e+00   4.119769e+00   3.066552e-03   1.915104e-03   4635380
  2.842916e+00   4.137824e+00   3.067131e-03   1.917238e-03   4670384
  2.853543e+00   4.152686e+00   3.069161e-03   1.916257e-03   4709258
  2.864179e+00   4.169832e+00   3.070324e-03   1.915571e-03   4747352
  2.874805e+00   4.195073e+00   3.063655e-03   1.921444e-03   4771664
  2.885427e+00   4.203941e+00   3.068600e-03   1.917911e-03   4813532
  2.896058e+00   4.219523e+00   3.070437e-03   1.914216e-03   4852322
  2.906693e+00   4.240399e+00   3.069013e-03   1.921708e-03   4886480
  2.917320e+00   4.253929e+00   3.066289e-03   1.920483e-03   4917248
  2.927939e+00   4.273391e+00   3.065099e-03   1.921569e-03   4950828
  2.938569e+00   4.298393e+00   3.072788e-03   1.922934e-03   5000170
  2.949204e+00   4.307378e+00   3.066857e-03   1.920641e-03   5026952
  2.959825e+00   4.325042e+00   3.064676e-03   1.925019e-03   5058752
  2.970445e+00   4.340211e+00   3.067741e-03   1.922837e-03   5100722
  2.981076e+00   4.360960e+00   3.068979e-03   1.926497e-03   5140124
  2.991706e+00   4.371974e+00   3.067937e-03   1.920987e-03   5174072
  3.002335e+00   4.392154e+00   3.068928e-03   1.925056e-03   5211608
  3.012962e+00   4.405992e+00   3.067917e-03   1.923575e-03   5247794
  3.023589e+00   4.422309e+00   3.066908e-03   1.926563e-03   5284196
  3.034222e+00   4.437671e+00   3.071657e-03   1.924241e-03   5328800
