# power spectrum of delta_N
# redshift z=2.596867
# k              Pk             sigma(k)       sigma(Pk)      count
  7.830312e-03   2.886890e-05   1.198114e-03   5.612315e-06   18
  1.686348e-02   7.855193e-04   2.897918e-03   8.495087e-05   152
  2.725284e-02   2.869382e-03   3.060867e-03   1.331080e-04   416
  3.742835e-02   5.806072e-03   2.912555e-03   2.239633e-04   770
  4.808679e-02   9.755369e-03   3.119650e-03   2.756632e-04   1364
  5.876109e-02   1.447609e-02   3.054550e-03   3.327596e-04   1976
  6.939824e-02   2.138216e-02   3.112555e-03   4.114811e-04   2792
  7.984642e-02   2.731674e-02   2.971805e-03   4.697930e-04   3578
  9.038229e-02   3.238279e-02   3.049521e-03   4.779506e-04   4724
  1.011318e-01   3.746004e-02   3.134595e-03   4.903767e-04   6032
  1.117485e-01   4.381391e-02   3.016599e-03   5.331404e-04   7072
  1.222702e-01   5.297111e-02   3.056387e-03   5.850398e-04   8634
  1.329722e-01   6.283055e-02   3.095256e-03   6.243832e-04   10336
  1.436677e-01   6.913892e-02   3.082009e-03   6.239681e-04   11940
  1.541872e-01   7.341569e-02   3.021465e-03   6.413479e-04   13490
  1.647185e-01   7.929288e-02   3.054444e-03   6.282134e-04   15656
  1.754149e-01   8.637796e-02   3.102608e-03   6.487554e-04   18008
  1.860920e-01   9.653388e-02   3.069464e-03   6.821671e-04   19964
  1.966957e-01   1.051825e-01   3.066093e-03   7.058022e-04   22354
  2.072851e-01   1.106892e-01   3.030819e-03   7.076759e-04   24648
  2.179134e-01   1.164410e-01   3.083109e-03   6.997498e-04   27592
  2.285517e-01   1.224558e-01   3.075318e-03   6.999778e-04   30152
  2.391687e-01   1.301206e-01   3.069056e-03   7.157369e-04   33046
  2.497808e-01   1.410001e-01   3.053846e-03   7.485829e-04   35992
  2.604233e-01   1.496510e-01   3.074764e-03   7.559093e-04   39304
  2.710722e-01   1.591528e-01   3.082145e-03   7.667775e-04   42608
  2.817050e-01   1.631893e-01   3.058267e-03   7.684731e-04   45758
  2.923349e-01   1.691412e-01   3.072286e-03   7.685144e-04   49536
  3.029238e-01   1.771998e-01   3.039208e-03   7.798087e-04   52488
  3.135134e-01   1.874221e-01   3.084628e-03   7.889178e-04   57034
  3.241511e-01   1.913565e-01   3.061146e-03   7.768594e-04   60648
  3.347969e-01   2.014872e-01   3.076329e-03   7.941945e-04   65044
  3.454223e-01   2.107524e-01   3.057760e-03   8.001118e-04   68720
  3.560505e-01   2.162423e-01   3.078281e-03   7.962561e-04   73538
  3.667175e-01   2.238857e-01   3.076939e-03   8.009258e-04   78080
  3.773260e-01   2.335567e-01   3.039859e-03   8.167278e-04   81572
  3.879192e-01   2.418974e-01   3.081238e-03   8.173921e-04   87248
  3.985882e-01   2.488813e-01   3.084591e-03   8.211012e-04   92266
  4.092322e-01   2.576707e-01   3.063169e-03   8.313600e-04   96696
  4.198039e-01   2.652528e-01   3.037602e-03   8.389779e-04   100904
  4.303789e-01   2.725283e-01   3.065517e-03   8.408250e-04   107036
  4.410480e-01   2.817760e-01   3.089487e-03   8.381526e-04   113362
  4.517307e-01   2.890793e-01   3.072092e-03   8.435025e-04   118176
  4.623378e-01   2.988594e-01   3.054661e-03   8.578868e-04   122944
  4.729644e-01   3.070594e-01   3.083007e-03   8.514265e-04   129902
  4.836049e-01   3.120919e-01   3.061727e-03   8.482858e-04   134944
  4.942158e-01   3.234102e-01   3.064979e-03   8.639940e-04   140952
  5.048213e-01   3.288440e-01   3.064662e-03   8.650170e-04   147072
  5.154342e-01   3.379035e-01   3.060800e-03   8.613739e-04   153382
  5.260893e-01   3.479868e-01   3.082622e-03   8.626556e-04   160952
  5.367508e-01   3.555740e-01   3.070294e-03   8.688100e-04   166640
  5.473579e-01   3.640930e-01   3.057153e-03   8.830580e-04   172448
  5.579787e-01   3.731283e-01   3.077577e-03   8.760936e-04   180594
  5.686178e-01   3.811549e-01   3.060710e-03   8.783206e-04   186556
  5.792219e-01   3.898763e-01   3.063394e-03   8.908271e-04   193528
  5.898242e-01   4.007615e-01   3.060684e-03   8.957815e-04   200626
  6.004609e-01   4.076079e-01   3.076604e-03   8.949608e-04   209256
  6.111150e-01   4.188277e-01   3.069663e-03   9.010848e-04   216020
  6.217510e-01   4.276842e-01   3.075746e-03   9.030291e-04   223768
  6.323610e-01   4.335520e-01   3.055783e-03   9.037462e-04   230234
  6.429887e-01   4.440602e-01   3.074922e-03   9.096998e-04   239800
  6.536248e-01   4.522048e-01   3.063054e-03   9.101029e-04   246568
  6.642393e-01   4.634428e-01   3.068328e-03   9.159575e-04   254828
  6.748534e-01   4.715826e-01   3.064424e-03   9.169715e-04   263074
  6.854951e-01   4.796744e-01   3.071509e-03   9.199251e-04   272312
  6.961385e-01   4.889280e-01   3.070197e-03   9.245179e-04   280376
  7.067732e-01   4.996713e-01   3.071500e-03   9.336259e-04   288884
  7.174012e-01   5.062357e-01   3.068501e-03   9.278542e-04   297602
  7.280177e-01   5.195298e-01   3.057614e-03   9.404044e-04   305520
  7.386402e-01   5.276793e-01   3.075198e-03   9.385896e-04   315976
  7.492461e-01   5.346681e-01   3.052723e-03   9.419158e-04   322778
  7.598720e-01   5.495149e-01   3.080021e-03   9.506544e-04   335372
  7.705286e-01   5.541382e-01   3.068318e-03   9.474322e-04   343464
  7.811635e-01   5.637153e-01   3.070705e-03   9.449192e-04   352912
  7.917934e-01   5.751784e-01   3.070498e-03   9.555955e-04   362666
  8.024224e-01   5.872184e-01   3.063690e-03   9.624739e-04   371884
  8.130465e-01   5.946365e-01   3.069929e-03   9.625689e-04   382280
  8.236583e-01   6.057707e-01   3.060755e-03   9.652641e-04   390888
  8.342648e-01   6.144154e-01   3.067168e-03   9.699628e-04   402234
  8.448912e-01   6.266710e-01   3.064832e-03   9.756276e-04   412576
  8.555263e-01   6.331603e-01   3.071788e-03   9.724310e-04   423732
  8.661590e-01   6.453713e-01   3.068142e-03   9.824638e-04   433624
  8.767950e-01   6.550157e-01   3.072203e-03   9.821193e-04   445154
  8.874347e-01   6.630847e-01   3.069139e-03   9.838350e-04   455584
  8.980596e-01   6.729024e-01   3.064716e-03   9.854260e-04   465588
  9.086714e-01   6.818120e-01   3.065163e-03   9.840829e-04   476762
  9.193048e-01   6.938851e-01   3.073106e-03   9.905796e-04   489552
  9.299472e-01   7.056211e-01   3.069632e-03   1.000144e-03   500328
  9.405628e-01   7.154574e-01   3.059261e-03   1.001263e-03   509852
  9.511854e-01   7.251988e-01   3.074339e-03   1.003784e-03   524234
  9.618189e-01   7.370994e-01   3.061952e-03   1.009168e-03   534104
  9.724448e-01   7.440390e-01   3.070528e-03   1.006571e-03   547048
  9.830800e-01   7.580945e-01   3.073862e-03   1.016136e-03   559328
  9.937180e-01   7.677913e-01   3.070866e-03   1.013881e-03   571326
  1.004339e+00   7.793719e-01   3.060367e-03   1.019228e-03   581920
  1.014951e+00   7.882786e-01   3.064588e-03   1.023844e-03   594832
  1.025571e+00   8.004523e-01   3.068054e-03   1.024572e-03   608048
  1.036206e+00   8.095738e-01   3.070252e-03   1.025013e-03   621526
  1.046839e+00   8.191658e-01   3.066112e-03   1.026470e-03   633240
  1.057456e+00   8.309470e-01   3.064953e-03   1.033859e-03   645472
  1.068086e+00   8.450612e-01   3.075342e-03   1.038840e-03   660906
  1.078726e+00   8.552184e-01   3.067576e-03   1.044886e-03   672856
  1.089356e+00   8.638316e-01   3.067094e-03   1.044740e-03   685980
  1.099980e+00   8.761648e-01   3.067978e-03   1.049795e-03   699256
  1.110619e+00   8.838475e-01   3.074976e-03   1.045243e-03   714730
  1.121246e+00   8.960400e-01   3.059348e-03   1.051569e-03   725152
  1.131863e+00   9.083148e-01   3.067634e-03   1.058290e-03   740420
  1.142485e+00   9.177082e-01   3.069089e-03   1.059656e-03   754312
  1.153114e+00   9.300103e-01   3.069897e-03   1.063262e-03   769114
  1.163749e+00   9.436664e-01   3.069209e-03   1.063580e-03   783488
  1.174365e+00   9.519003e-01   3.058900e-03   1.065036e-03   794968
  1.184981e+00   9.670846e-01   3.070107e-03   1.074259e-03   812366
  1.195609e+00   9.773486e-01   3.065134e-03   1.077093e-03   825976
  1.206250e+00   9.883941e-01   3.075220e-03   1.075087e-03   843352
  1.216898e+00   1.001876e+00   3.073224e-03   1.083283e-03   857280
  1.227524e+00   1.012409e+00   3.063189e-03   1.087334e-03   869542
  1.238147e+00   1.025178e+00   3.070752e-03   1.089058e-03   887128
  1.248772e+00   1.034433e+00   3.063166e-03   1.091292e-03   900032
  1.259388e+00   1.043973e+00   3.067377e-03   1.090223e-03   916560
  1.270005e+00   1.055650e+00   3.061783e-03   1.095357e-03   930922
  1.280635e+00   1.068100e+00   3.071795e-03   1.095252e-03   949844
  1.291287e+00   1.081175e+00   3.076939e-03   1.099009e-03   966736
  1.301925e+00   1.094647e+00   3.065819e-03   1.104836e-03   978776
  1.312537e+00   1.106267e+00   3.064137e-03   1.111388e-03   994522
  1.323161e+00   1.115671e+00   3.068907e-03   1.111720e-03   1012420
  1.333794e+00   1.129292e+00   3.071598e-03   1.114967e-03   1029408
  1.344410e+00   1.140701e+00   3.058405e-03   1.117424e-03   1041658
  1.355032e+00   1.152296e+00   3.072381e-03   1.119005e-03   1063520
  1.365659e+00   1.163470e+00   3.060689e-03   1.120608e-03   1075808
  1.376294e+00   1.178149e+00   3.080019e-03   1.123944e-03   1098956
  1.386928e+00   1.188064e+00   3.061670e-03   1.128526e-03   1109810
  1.397545e+00   1.203595e+00   3.065288e-03   1.133537e-03   1128608
  1.408178e+00   1.216457e+00   3.073589e-03   1.136463e-03   1148264
  1.418813e+00   1.227792e+00   3.067917e-03   1.141787e-03   1163252
  1.429436e+00   1.238554e+00   3.067070e-03   1.139660e-03   1181042
  1.440060e+00   1.250615e+00   3.064325e-03   1.144396e-03   1197848
  1.450692e+00   1.262643e+00   3.073737e-03   1.143423e-03   1218848
  1.461323e+00   1.274800e+00   3.064859e-03   1.148592e-03   1232916
  1.471945e+00   1.287136e+00   3.068844e-03   1.149356e-03   1253002
  1.482566e+00   1.297597e+00   3.062284e-03   1.150742e-03   1268576
  1.493191e+00   1.311572e+00   3.071552e-03   1.157309e-03   1290128
  1.503822e+00   1.328356e+00   3.068342e-03   1.162722e-03   1307402
  1.514455e+00   1.334905e+00   3.069122e-03   1.159968e-03   1327028
  1.525083e+00   1.347593e+00   3.064970e-03   1.161044e-03   1343648
  1.535711e+00   1.364474e+00   3.070217e-03   1.168634e-03   1364096
  1.546341e+00   1.373783e+00   3.068950e-03   1.169511e-03   1382730
  1.556974e+00   1.387784e+00   3.068757e-03   1.171836e-03   1402164
  1.567604e+00   1.399710e+00   3.068159e-03   1.175981e-03   1420464
  1.578221e+00   1.409999e+00   3.063798e-03   1.180282e-03   1437368
  1.588847e+00   1.426437e+00   3.072142e-03   1.178647e-03   1461530
  1.599480e+00   1.436396e+00   3.065069e-03   1.180416e-03   1478264
  1.610108e+00   1.451572e+00   3.068902e-03   1.187395e-03   1499356
  1.620732e+00   1.461199e+00   3.065238e-03   1.188804e-03   1517016
  1.631360e+00   1.477211e+00   3.070849e-03   1.191521e-03   1540090
  1.641988e+00   1.489454e+00   3.065366e-03   1.194558e-03   1557360
  1.652609e+00   1.500105e+00   3.066926e-03   1.195863e-03   1577780
  1.663242e+00   1.514824e+00   3.075107e-03   1.199437e-03   1602578
  1.673875e+00   1.527956e+00   3.063542e-03   1.200723e-03   1617672
  1.684498e+00   1.542630e+00   3.069033e-03   1.204044e-03   1641016
  1.695122e+00   1.554769e+00   3.065080e-03   1.207885e-03   1659416
  1.705746e+00   1.567032e+00   3.068431e-03   1.207045e-03   1682670
  1.716382e+00   1.580225e+00   3.070690e-03   1.210839e-03   1705256
  1.727024e+00   1.592813e+00   3.071890e-03   1.212898e-03   1726312
  1.737645e+00   1.604414e+00   3.062639e-03   1.216284e-03   1741880
  1.748261e+00   1.619906e+00   3.067156e-03   1.220004e-03   1766454
  1.758897e+00   1.634372e+00   3.073105e-03   1.221459e-03   1791784
  1.769528e+00   1.647984e+00   3.063894e-03   1.228150e-03   1807712
  1.780139e+00   1.659439e+00   3.062775e-03   1.228263e-03   1829002
  1.790759e+00   1.669021e+00   3.067263e-03   1.228157e-03   1854216
  1.801400e+00   1.685493e+00   3.074631e-03   1.232071e-03   1880156
  1.812037e+00   1.695588e+00   3.068349e-03   1.232418e-03   1897568
  1.822663e+00   1.713279e+00   3.068475e-03   1.235468e-03   1920458
  1.833288e+00   1.726591e+00   3.065997e-03   1.240282e-03   1942208
  1.843915e+00   1.738503e+00   3.067813e-03   1.242023e-03   1965612
  1.854544e+00   1.751993e+00   3.069639e-03   1.242679e-03   1989000
  1.865168e+00   1.764149e+00   3.064465e-03   1.243724e-03   2009114
  1.875791e+00   1.777338e+00   3.067400e-03   1.246373e-03   2034464
  1.886424e+00   1.791649e+00   3.070174e-03   1.250272e-03   2058476
  1.897052e+00   1.803572e+00   3.068039e-03   1.250954e-03   2079648
  1.907673e+00   1.817193e+00   3.065891e-03   1.252330e-03   2102578
  1.918306e+00   1.831490e+00   3.070742e-03   1.256452e-03   2129928
  1.928942e+00   1.846348e+00   3.069733e-03   1.259099e-03   2152096
  1.939563e+00   1.860722e+00   3.062858e-03   1.264462e-03   2171142
  1.950185e+00   1.874148e+00   3.069150e-03   1.264092e-03   2200248
  1.960824e+00   1.884069e+00   3.071017e-03   1.262813e-03   2225216
  1.971460e+00   1.898565e+00   3.070942e-03   1.265741e-03   2248448
  1.982084e+00   1.914384e+00   3.064272e-03   1.271695e-03   2267942
  1.992710e+00   1.925189e+00   3.071051e-03   1.269695e-03   2298072
  2.003337e+00   1.940953e+00   3.064068e-03   1.276693e-03   2317272
  2.013961e+00   1.951756e+00   3.069747e-03   1.275602e-03   2345808
  2.024580e+00   1.965281e+00   3.062469e-03   1.280259e-03   2365650
  2.035206e+00   1.982262e+00   3.069930e-03   1.280753e-03   2396940
  2.045842e+00   1.991945e+00   3.069936e-03   1.279714e-03   2421272
  2.056473e+00   2.009190e+00   3.068399e-03   1.285338e-03   2444576
  2.067102e+00   2.019011e+00   3.069748e-03   1.285933e-03   2471490
  2.077728e+00   2.032631e+00   3.064854e-03   1.288960e-03   2493180
  2.088349e+00   2.045979e+00   3.068019e-03   1.289406e-03   2520952
  2.098972e+00   2.061462e+00   3.065319e-03   1.294362e-03   2544946
  2.109598e+00   2.073462e+00   3.068311e-03   1.295489e-03   2573856
  2.120230e+00   2.088901e+00   3.069026e-03   1.296891e-03   2600016
  2.130862e+00   2.101720e+00   3.069102e-03   1.298963e-03   2625484
  2.141490e+00   2.115617e+00   3.068080e-03   1.300860e-03   2651122
  2.152130e+00   2.127680e+00   3.074348e-03   1.299274e-03   2683488
  2.162754e+00   2.142687e+00   3.059466e-03   1.306130e-03   2696352
  2.173371e+00   2.152898e+00   3.071171e-03   1.303105e-03   2733020
  2.184002e+00   2.167207e+00   3.067530e-03   1.307175e-03   2757378
  2.194631e+00   2.184769e+00   3.067942e-03   1.310280e-03   2784864
  2.205259e+00   2.195494e+00   3.067811e-03   1.310722e-03   2811168
  2.215874e+00   2.208892e+00   3.061061e-03   1.313430e-03   2832274
  2.226505e+00   2.224212e+00   3.075611e-03   1.314026e-03   2873636
  2.237142e+00   2.235705e+00   3.064877e-03   1.317086e-03   2890496
  2.247766e+00   2.249980e+00   3.069851e-03   1.317006e-03   2921800
  2.258399e+00   2.263103e+00   3.071101e-03   1.319212e-03   2951298
  2.269032e+00   2.279858e+00   3.066274e-03   1.323398e-03   2975476
  2.279663e+00   2.290941e+00   3.071375e-03   1.320876e-03   3007728
  2.290285e+00   2.304014e+00   3.061886e-03   1.326328e-03   3025776
  2.300910e+00   2.318632e+00   3.072955e-03   1.328613e-03   3065762
  2.311540e+00   2.332351e+00   3.063208e-03   1.327791e-03   3084856
  2.322162e+00   2.342067e+00   3.068985e-03   1.328121e-03   3118044
  2.332782e+00   2.356916e+00   3.064319e-03   1.331229e-03   3141352
  2.343410e+00   2.374492e+00   3.072036e-03   1.334926e-03   3179274
  2.354046e+00   2.384148e+00   3.067682e-03   1.333130e-03   3204120
  2.364668e+00   2.399383e+00   3.063610e-03   1.337079e-03   3227900
  2.375288e+00   2.411045e+00   3.068722e-03   1.337421e-03   3262394
  2.385925e+00   2.422713e+00   3.071814e-03   1.336352e-03   3295680
  2.396559e+00   2.436603e+00   3.067166e-03   1.337706e-03   3319560
  2.407184e+00   2.452192e+00   3.068070e-03   1.340497e-03   3348972
  2.417810e+00   2.465708e+00   3.068540e-03   1.342385e-03   3379722
  2.428441e+00   2.478003e+00   3.068348e-03   1.344549e-03   3410720
  2.439075e+00   2.492333e+00   3.069517e-03   1.345803e-03   3441504
  2.449697e+00   2.506615e+00   3.063301e-03   1.346722e-03   3463624
  2.460317e+00   2.519910e+00   3.068043e-03   1.349501e-03   3499790
  2.470951e+00   2.531923e+00   3.070702e-03   1.349498e-03   3533560
  2.481588e+00   2.542935e+00   3.069830e-03   1.349014e-03   3561920
  2.492209e+00   2.557099e+00   3.064208e-03   1.352008e-03   3585208
  2.502830e+00   2.569638e+00   3.069185e-03   1.351511e-03   3622518
  2.513468e+00   2.584701e+00   3.072344e-03   1.353300e-03   3657584
  2.524094e+00   2.597222e+00   3.062507e-03   1.357066e-03   3676440
  2.534707e+00   2.610246e+00   3.065232e-03   1.356988e-03   3711282
  2.545334e+00   2.625506e+00   3.068763e-03   1.357889e-03   3747696
  2.555965e+00   2.638675e+00   3.067225e-03   1.358679e-03   3776188
  2.566601e+00   2.655855e+00   3.074483e-03   1.361225e-03   3815304
  2.577232e+00   2.661669e+00   3.064660e-03   1.361219e-03   3835370
  2.587856e+00   2.675117e+00   3.068926e-03   1.361383e-03   3873424
  2.598487e+00   2.692470e+00   3.067978e-03   1.363175e-03   3903420
  2.609117e+00   2.704795e+00   3.070036e-03   1.365053e-03   3937624
  2.619745e+00   2.713398e+00   3.066011e-03   1.363756e-03   3965658
  2.630375e+00   2.727032e+00   3.069802e-03   1.362809e-03   4002984
  2.641001e+00   2.740468e+00   3.065136e-03   1.366181e-03   4027928
  2.651616e+00   2.750377e+00   3.064941e-03   1.365828e-03   4059844
  2.662241e+00   2.769736e+00   3.069945e-03   1.370019e-03   4100338
  2.672876e+00   2.780941e+00   3.069128e-03   1.368270e-03   4132264
  2.683506e+00   2.788324e+00   3.068474e-03   1.368393e-03   4163216
  2.694131e+00   2.806030e+00   3.066146e-03   1.371692e-03   4193350
  2.704761e+00   2.818090e+00   3.071068e-03   1.371206e-03   4234456
  2.715390e+00   2.834551e+00   3.064079e-03   1.375366e-03   4257264
  2.726012e+00   2.841130e+00   3.069774e-03   1.372096e-03   4297352
  2.736640e+00   2.854533e+00   3.067495e-03   1.373863e-03   4328642
  2.747272e+00   2.870950e+00   3.070663e-03   1.373242e-03   4367948
  2.757895e+00   2.881261e+00   3.061799e-03   1.375670e-03   4388384
  2.768519e+00   2.892619e+00   3.072247e-03   1.375458e-03   4436648
  2.779154e+00   2.908247e+00   3.067997e-03   1.378499e-03   4465658
  2.789787e+00   2.916936e+00   3.069677e-03   1.375776e-03   4502948
  2.800413e+00   2.928421e+00   3.064787e-03   1.377367e-03   4528880
  2.811033e+00   2.945524e+00   3.067181e-03   1.379753e-03   4566290
  2.821663e+00   2.956739e+00   3.070655e-03   1.379823e-03   4606856
  2.832293e+00   2.969435e+00   3.066552e-03   1.380741e-03   4635380
  2.842916e+00   2.982599e+00   3.067131e-03   1.381547e-03   4670384
  2.853543e+00   2.994192e+00   3.069161e-03   1.382325e-03   4709258
  2.864179e+00   3.003836e+00   3.070324e-03   1.378953e-03   4747352
  2.874805e+00   3.022739e+00   3.063655e-03   1.384466e-03   4771664
  2.885427e+00   3.029712e+00   3.068600e-03   1.381839e-03   4813532
  2.896058e+00   3.043552e+00   3.070437e-03   1.381977e-03   4852322
  2.906693e+00   3.053572e+00   3.069013e-03   1.384522e-03   4886480
  2.917320e+00   3.064140e+00   3.066289e-03   1.383251e-03   4917248
  2.927939e+00   3.079784e+00   3.065099e-03   1.386391e-03   4950828
  2.938569e+00   3.094017e+00   3.072788e-03   1.384655e-03   5000170
  2.949204e+00   3.104287e+00   3.066857e-03   1.385200e-03   5026952
  2.959825e+00   3.115085e+00   3.064676e-03   1.385291e-03   5058752
  2.970445e+00   3.125617e+00   3.067741e-03   1.386364e-03   5100722
  2.981076e+00   3.140024e+00   3.068979e-03   1.387449e-03   5140124
  2.991706e+00   3.147934e+00   3.067937e-03   1.384593e-03   5174072
  3.002335e+00   3.164519e+00   3.068928e-03   1.387765e-03   5211608
  3.012962e+00   3.173894e+00   3.067917e-03   1.387065e-03   5247794
  3.023589e+00   3.182903e+00   3.066908e-03   1.386174e-03   5284196
  3.034222e+00   3.195350e+00   3.071657e-03   1.385221e-03   5328800
