# power spectrum of delta_N
# redshift z=1.799277
# k              Pk             sigma(k)       sigma(Pk)      count
  7.830312e-03   4.646885e-05   1.198114e-03   9.040794e-06   18
  1.686348e-02   1.269592e-03   2.897918e-03   1.372171e-04   152
  2.725284e-02   4.645731e-03   3.060867e-03   2.155712e-04   416
  3.742835e-02   9.395118e-03   2.912555e-03   3.622633e-04   770
  4.808679e-02   1.576377e-02   3.119650e-03   4.459435e-04   1364
  5.876109e-02   2.342551e-02   3.054550e-03   5.381751e-04   1976
  6.939824e-02   3.456056e-02   3.112555e-03   6.650821e-04   2792
  7.984642e-02   4.421483e-02   2.971805e-03   7.572142e-04   3578
  9.038229e-02   5.235986e-02   3.049521e-03   7.719254e-04   4724
  1.011318e-01   6.073195e-02   3.134595e-03   7.944485e-04   6032
  1.117485e-01   7.092906e-02   3.016599e-03   8.659238e-04   7072
  1.222702e-01   8.601786e-02   3.056387e-03   9.503266e-04   8634
  1.329722e-01   1.018675e-01   3.095256e-03   1.014873e-03   10336
  1.436677e-01   1.124014e-01   3.082009e-03   1.014545e-03   11940
  1.541872e-01   1.198509e-01   3.021465e-03   1.048485e-03   13490
  1.647185e-01   1.301853e-01   3.054444e-03   1.032384e-03   15656
  1.754149e-01   1.418159e-01   3.102608e-03   1.061915e-03   18008
  1.860920e-01   1.584945e-01   3.069464e-03   1.118664e-03   19964
  1.966957e-01   1.728488e-01   3.066093e-03   1.161893e-03   22354
  2.072851e-01   1.821363e-01   3.030819e-03   1.162521e-03   24648
  2.179134e-01   1.925262e-01   3.083109e-03   1.154600e-03   27592
  2.285517e-01   2.039013e-01   3.075318e-03   1.170211e-03   30152
  2.391687e-01   2.169070e-01   3.069056e-03   1.198303e-03   33046
  2.497808e-01   2.349784e-01   3.053846e-03   1.245219e-03   35992
  2.604233e-01   2.501446e-01   3.074764e-03   1.266454e-03   39304
  2.710722e-01   2.662478e-01   3.082145e-03   1.283728e-03   42608
  2.817050e-01   2.753627e-01   3.058267e-03   1.293453e-03   45758
  2.923349e-01   2.857604e-01   3.072286e-03   1.299735e-03   49536
  3.029238e-01   3.005381e-01   3.039208e-03   1.316304e-03   52488
  3.135134e-01   3.193025e-01   3.084628e-03   1.342004e-03   57034
  3.241511e-01   3.261177e-01   3.061146e-03   1.323102e-03   60648
  3.347969e-01   3.446737e-01   3.076329e-03   1.355059e-03   65044
  3.454223e-01   3.612997e-01   3.057760e-03   1.370071e-03   68720
  3.560505e-01   3.717910e-01   3.078281e-03   1.369160e-03   73538
  3.667175e-01   3.865974e-01   3.076939e-03   1.385103e-03   78080
  3.773260e-01   4.042779e-01   3.039859e-03   1.416006e-03   81572
  3.879192e-01   4.206858e-01   3.081238e-03   1.422198e-03   87248
  3.985882e-01   4.338933e-01   3.084591e-03   1.429998e-03   92266
  4.092322e-01   4.508048e-01   3.063169e-03   1.457279e-03   96696
  4.198039e-01   4.641008e-01   3.037602e-03   1.467655e-03   100904
  4.303789e-01   4.804335e-01   3.065517e-03   1.480245e-03   107036
  4.410480e-01   4.987156e-01   3.089487e-03   1.485516e-03   113362
  4.517307e-01   5.125496e-01   3.072092e-03   1.488186e-03   118176
  4.623378e-01   5.308022e-01   3.054661e-03   1.526389e-03   122944
  4.729644e-01   5.475351e-01   3.083007e-03   1.524472e-03   129902
  4.836049e-01   5.581891e-01   3.061727e-03   1.518594e-03   134944
  4.942158e-01   5.813946e-01   3.064979e-03   1.553781e-03   140952
  5.048213e-01   5.924384e-01   3.064662e-03   1.555299e-03   147072
  5.154342e-01   6.108837e-01   3.060800e-03   1.556161e-03   153382
  5.260893e-01   6.318680e-01   3.082622e-03   1.561433e-03   160952
  5.367508e-01   6.456050e-01   3.070294e-03   1.581143e-03   166640
  5.473579e-01   6.660614e-01   3.057153e-03   1.610711e-03   172448
  5.579787e-01   6.817694e-01   3.077577e-03   1.605197e-03   180594
  5.686178e-01   6.995944e-01   3.060710e-03   1.611243e-03   186556
  5.792219e-01   7.178420e-01   3.063394e-03   1.637586e-03   193528
  5.898242e-01   7.395689e-01   3.060684e-03   1.648447e-03   200626
  6.004609e-01   7.551043e-01   3.076604e-03   1.658222e-03   209256
  6.111150e-01   7.773501e-01   3.069663e-03   1.674070e-03   216020
  6.217510e-01   7.971571e-01   3.075746e-03   1.683447e-03   223768
  6.323610e-01   8.103420e-01   3.055783e-03   1.693287e-03   230234
  6.429887e-01   8.326670e-01   3.074922e-03   1.703927e-03   239800
  6.536248e-01   8.533595e-01   3.063054e-03   1.716155e-03   246568
  6.642393e-01   8.754459e-01   3.068328e-03   1.730332e-03   254828
  6.748534e-01   8.905935e-01   3.064424e-03   1.732850e-03   263074
  6.854951e-01   9.089711e-01   3.071509e-03   1.741726e-03   272312
  6.961385e-01   9.308689e-01   3.070197e-03   1.763665e-03   280376
  7.067732e-01   9.544384e-01   3.071500e-03   1.779461e-03   288884
  7.174012e-01   9.704071e-01   3.068501e-03   1.775430e-03   297602
  7.280177e-01   9.999290e-01   3.057614e-03   1.808350e-03   305520
  7.386402e-01   1.015220e+00   3.075198e-03   1.803324e-03   315976
  7.492461e-01   1.035329e+00   3.052723e-03   1.813961e-03   322778
  7.598720e-01   1.063920e+00   3.080021e-03   1.837970e-03   335372
  7.705286e-01   1.078264e+00   3.068318e-03   1.840356e-03   343464
  7.811635e-01   1.098191e+00   3.070705e-03   1.846571e-03   352912
  7.917934e-01   1.122263e+00   3.070498e-03   1.862567e-03   362666
  8.024224e-01   1.151318e+00   3.063690e-03   1.889931e-03   371884
  8.130465e-01   1.167895e+00   3.069929e-03   1.888894e-03   382280
  8.236583e-01   1.191122e+00   3.060755e-03   1.896870e-03   390888
  8.342648e-01   1.212976e+00   3.067168e-03   1.911142e-03   402234
  8.448912e-01   1.244724e+00   3.064832e-03   1.935490e-03   412576
  8.555263e-01   1.257526e+00   3.071788e-03   1.934010e-03   423732
  8.661590e-01   1.284722e+00   3.068142e-03   1.949861e-03   433624
  8.767950e-01   1.307184e+00   3.072203e-03   1.954736e-03   445154
  8.874347e-01   1.331679e+00   3.069139e-03   1.974565e-03   455584
  8.980596e-01   1.353645e+00   3.064716e-03   1.985393e-03   465588
  9.086714e-01   1.373498e+00   3.065163e-03   1.985509e-03   476762
  9.193048e-01   1.401757e+00   3.073106e-03   1.997292e-03   489552
  9.299472e-01   1.429784e+00   3.069632e-03   2.023769e-03   500328
  9.405628e-01   1.454324e+00   3.059261e-03   2.035442e-03   509852
  9.511854e-01   1.474883e+00   3.074339e-03   2.044704e-03   524234
  9.618189e-01   1.499519e+00   3.061952e-03   2.049847e-03   534104
  9.724448e-01   1.524368e+00   3.070528e-03   2.062059e-03   547048
  9.830800e-01   1.550640e+00   3.073862e-03   2.071282e-03   559328
  9.937180e-01   1.577209e+00   3.070866e-03   2.087784e-03   571326
  1.004339e+00   1.604451e+00   3.060367e-03   2.096837e-03   581920
  1.014951e+00   1.626817e+00   3.064588e-03   2.109654e-03   594832
  1.025571e+00   1.654794e+00   3.068054e-03   2.123194e-03   608048
  1.036206e+00   1.679221e+00   3.070252e-03   2.128794e-03   621526
  1.046839e+00   1.704538e+00   3.066112e-03   2.149200e-03   633240
  1.057456e+00   1.731980e+00   3.064953e-03   2.152727e-03   645472
  1.068086e+00   1.761339e+00   3.075342e-03   2.166738e-03   660906
  1.078726e+00   1.789910e+00   3.067576e-03   2.187802e-03   672856
  1.089356e+00   1.813092e+00   3.067094e-03   2.189047e-03   685980
  1.099980e+00   1.838432e+00   3.067978e-03   2.202071e-03   699256
  1.110619e+00   1.868149e+00   3.074976e-03   2.206065e-03   714730
  1.121246e+00   1.892361e+00   3.059348e-03   2.223572e-03   725152
  1.131863e+00   1.918897e+00   3.067634e-03   2.236474e-03   740420
  1.142485e+00   1.943482e+00   3.069089e-03   2.243323e-03   754312
  1.153114e+00   1.971538e+00   3.069897e-03   2.253553e-03   769114
  1.163749e+00   2.011106e+00   3.069209e-03   2.271095e-03   783488
  1.174365e+00   2.029845e+00   3.058900e-03   2.278033e-03   794968
  1.184981e+00   2.063061e+00   3.070107e-03   2.289169e-03   812366
  1.195609e+00   2.092678e+00   3.065134e-03   2.303444e-03   825976
  1.206250e+00   2.119778e+00   3.075220e-03   2.309034e-03   843352
  1.216898e+00   2.149839e+00   3.073224e-03   2.320580e-03   857280
  1.227524e+00   2.184685e+00   3.063189e-03   2.345465e-03   869542
  1.238147e+00   2.210596e+00   3.070752e-03   2.349610e-03   887128
  1.248772e+00   2.240736e+00   3.063166e-03   2.360447e-03   900032
  1.259388e+00   2.264811e+00   3.067377e-03   2.361920e-03   916560
  1.270005e+00   2.289685e+00   3.061783e-03   2.379178e-03   930922
  1.280635e+00   2.324898e+00   3.071795e-03   2.380340e-03   949844
  1.291287e+00   2.357788e+00   3.076939e-03   2.397799e-03   966736
  1.301925e+00   2.387575e+00   3.065819e-03   2.414984e-03   978776
  1.312537e+00   2.420074e+00   3.064137e-03   2.436187e-03   994522
  1.323161e+00   2.446873e+00   3.068907e-03   2.434648e-03   1012420
  1.333794e+00   2.476548e+00   3.071598e-03   2.441064e-03   1029408
  1.344410e+00   2.510838e+00   3.058405e-03   2.462171e-03   1041658
  1.355032e+00   2.540513e+00   3.072381e-03   2.466878e-03   1063520
  1.365659e+00   2.570073e+00   3.060689e-03   2.478441e-03   1075808
  1.376294e+00   2.605849e+00   3.080019e-03   2.490441e-03   1098956
  1.386928e+00   2.637889e+00   3.061670e-03   2.503422e-03   1109810
  1.397545e+00   2.673818e+00   3.065288e-03   2.516139e-03   1128608
  1.408178e+00   2.700427e+00   3.073589e-03   2.513287e-03   1148264
  1.418813e+00   2.729719e+00   3.067917e-03   2.530742e-03   1163252
  1.429436e+00   2.759686e+00   3.067070e-03   2.543049e-03   1181042
  1.440060e+00   2.797227e+00   3.064325e-03   2.550266e-03   1197848
  1.450692e+00   2.826017e+00   3.073737e-03   2.563054e-03   1218848
  1.461323e+00   2.857416e+00   3.064859e-03   2.575061e-03   1232916
  1.471945e+00   2.888249e+00   3.068844e-03   2.575520e-03   1253002
  1.482566e+00   2.917703e+00   3.062284e-03   2.587615e-03   1268576
  1.493191e+00   2.959888e+00   3.071552e-03   2.607611e-03   1290128
  1.503822e+00   2.985880e+00   3.068342e-03   2.614849e-03   1307402
  1.514455e+00   3.021616e+00   3.069122e-03   2.628397e-03   1327028
  1.525083e+00   3.052951e+00   3.064970e-03   2.632625e-03   1343648
  1.535711e+00   3.093213e+00   3.070217e-03   2.651321e-03   1364096
  1.546341e+00   3.124830e+00   3.068950e-03   2.654986e-03   1382730
  1.556974e+00   3.144285e+00   3.068757e-03   2.655009e-03   1402164
  1.567604e+00   3.184926e+00   3.068159e-03   2.673473e-03   1420464
  1.578221e+00   3.217608e+00   3.063798e-03   2.687873e-03   1437368
  1.588847e+00   3.260109e+00   3.072142e-03   2.693828e-03   1461530
  1.599480e+00   3.283247e+00   3.065069e-03   2.702840e-03   1478264
  1.610108e+00   3.323968e+00   3.068902e-03   2.709671e-03   1499356
  1.620732e+00   3.349473e+00   3.065238e-03   2.720895e-03   1517016
  1.631360e+00   3.392434e+00   3.070849e-03   2.733290e-03   1540090
  1.641988e+00   3.421252e+00   3.065366e-03   2.741337e-03   1557360
  1.652609e+00   3.451517e+00   3.066926e-03   2.745560e-03   1577780
  1.663242e+00   3.491005e+00   3.075107e-03   2.752701e-03   1602578
  1.673875e+00   3.525710e+00   3.063542e-03   2.767262e-03   1617672
  1.684498e+00   3.561256e+00   3.069033e-03   2.779847e-03   1641016
  1.695122e+00   3.592480e+00   3.065080e-03   2.790295e-03   1659416
  1.705746e+00   3.625773e+00   3.068431e-03   2.797037e-03   1682670
  1.716382e+00   3.661169e+00   3.070690e-03   2.797146e-03   1705256
  1.727024e+00   3.691064e+00   3.071890e-03   2.812842e-03   1726312
  1.737645e+00   3.727266e+00   3.062639e-03   2.830635e-03   1741880
  1.748261e+00   3.764665e+00   3.067156e-03   2.831957e-03   1766454
  1.758897e+00   3.800746e+00   3.073105e-03   2.835879e-03   1791784
  1.769528e+00   3.839674e+00   3.063894e-03   2.860798e-03   1807712
  1.780139e+00   3.867925e+00   3.062775e-03   2.863551e-03   1829002
  1.790759e+00   3.904354e+00   3.067263e-03   2.870845e-03   1854216
  1.801400e+00   3.945555e+00   3.074631e-03   2.880407e-03   1880156
  1.812037e+00   3.968343e+00   3.068349e-03   2.885493e-03   1897568
  1.822663e+00   4.007640e+00   3.068475e-03   2.895564e-03   1920458
  1.833288e+00   4.045124e+00   3.065997e-03   2.900265e-03   1942208
  1.843915e+00   4.084754e+00   3.067813e-03   2.917726e-03   1965612
  1.854544e+00   4.111832e+00   3.069639e-03   2.914202e-03   1989000
  1.865168e+00   4.144604e+00   3.064465e-03   2.918587e-03   2009114
  1.875791e+00   4.178024e+00   3.067400e-03   2.925361e-03   2034464
  1.886424e+00   4.218274e+00   3.070174e-03   2.939230e-03   2058476
  1.897052e+00   4.251619e+00   3.068039e-03   2.950465e-03   2079648
  1.907673e+00   4.288447e+00   3.065891e-03   2.965998e-03   2102578
  1.918306e+00   4.316129e+00   3.070742e-03   2.960045e-03   2129928
  1.928942e+00   4.359098e+00   3.069733e-03   2.976091e-03   2152096
  1.939563e+00   4.400144e+00   3.062858e-03   2.991241e-03   2171142
  1.950185e+00   4.440188e+00   3.069150e-03   2.990763e-03   2200248
  1.960824e+00   4.457466e+00   3.071017e-03   2.986313e-03   2225216
  1.971460e+00   4.500724e+00   3.070942e-03   3.000969e-03   2248448
  1.982084e+00   4.537493e+00   3.064272e-03   3.012078e-03   2267942
  1.992710e+00   4.576500e+00   3.071051e-03   3.019769e-03   2298072
  2.003337e+00   4.615677e+00   3.064068e-03   3.035523e-03   2317272
  2.013961e+00   4.645287e+00   3.069747e-03   3.033137e-03   2345808
  2.024580e+00   4.673245e+00   3.062469e-03   3.035004e-03   2365650
  2.035206e+00   4.713615e+00   3.069930e-03   3.046447e-03   2396940
  2.045842e+00   4.748796e+00   3.069936e-03   3.053035e-03   2421272
  2.056473e+00   4.791626e+00   3.068399e-03   3.069042e-03   2444576
  2.067102e+00   4.821204e+00   3.069748e-03   3.068245e-03   2471490
  2.077728e+00   4.856844e+00   3.064854e-03   3.077502e-03   2493180
  2.088349e+00   4.891938e+00   3.068019e-03   3.080453e-03   2520952
  2.098972e+00   4.919482e+00   3.065319e-03   3.084232e-03   2544946
  2.109598e+00   4.948979e+00   3.068311e-03   3.088198e-03   2573856
  2.120230e+00   4.993248e+00   3.069026e-03   3.100106e-03   2600016
  2.130862e+00   5.033693e+00   3.069102e-03   3.106309e-03   2625484
  2.141490e+00   5.065050e+00   3.068080e-03   3.111154e-03   2651122
  2.152130e+00   5.101822e+00   3.074348e-03   3.109059e-03   2683488
  2.162754e+00   5.141322e+00   3.059466e-03   3.132058e-03   2696352
  2.173371e+00   5.165955e+00   3.071171e-03   3.119994e-03   2733020
  2.184002e+00   5.203159e+00   3.067530e-03   3.134438e-03   2757378
  2.194631e+00   5.244737e+00   3.067942e-03   3.144350e-03   2784864
  2.205259e+00   5.275835e+00   3.067811e-03   3.146395e-03   2811168
  2.215874e+00   5.311712e+00   3.061061e-03   3.152558e-03   2832274
  2.226505e+00   5.353504e+00   3.075611e-03   3.157489e-03   2873636
  2.237142e+00   5.386803e+00   3.064877e-03   3.171607e-03   2890496
  2.247766e+00   5.421269e+00   3.069851e-03   3.170420e-03   2921800
  2.258399e+00   5.449102e+00   3.071101e-03   3.165274e-03   2951298
  2.269032e+00   5.492145e+00   3.066274e-03   3.186721e-03   2975476
  2.279663e+00   5.516724e+00   3.071375e-03   3.180948e-03   3007728
  2.290285e+00   5.558990e+00   3.061886e-03   3.191452e-03   3025776
  2.300910e+00   5.599034e+00   3.072955e-03   3.196978e-03   3065762
  2.311540e+00   5.621667e+00   3.063208e-03   3.200331e-03   3084856
  2.322162e+00   5.666843e+00   3.068985e-03   3.209870e-03   3118044
  2.332782e+00   5.694172e+00   3.064319e-03   3.212111e-03   3141352
  2.343410e+00   5.735754e+00   3.072036e-03   3.220239e-03   3179274
  2.354046e+00   5.757092e+00   3.067682e-03   3.217088e-03   3204120
  2.364668e+00   5.795560e+00   3.063610e-03   3.230790e-03   3227900
  2.375288e+00   5.839826e+00   3.068722e-03   3.230969e-03   3262394
  2.385925e+00   5.866862e+00   3.071814e-03   3.236028e-03   3295680
  2.396559e+00   5.897726e+00   3.067166e-03   3.236642e-03   3319560
  2.407184e+00   5.937796e+00   3.068070e-03   3.245747e-03   3348972
  2.417810e+00   5.969962e+00   3.068540e-03   3.248078e-03   3379722
  2.428441e+00   6.003308e+00   3.068348e-03   3.251453e-03   3410720
  2.439075e+00   6.038050e+00   3.069517e-03   3.255284e-03   3441504
  2.449697e+00   6.071543e+00   3.063301e-03   3.261380e-03   3463624
  2.460317e+00   6.104716e+00   3.068043e-03   3.266769e-03   3499790
  2.470951e+00   6.142379e+00   3.070702e-03   3.272173e-03   3533560
  2.481588e+00   6.174847e+00   3.069830e-03   3.272184e-03   3561920
  2.492209e+00   6.196565e+00   3.064208e-03   3.275129e-03   3585208
  2.502830e+00   6.241251e+00   3.069185e-03   3.280841e-03   3622518
  2.513468e+00   6.267810e+00   3.072344e-03   3.278507e-03   3657584
  2.524094e+00   6.305886e+00   3.062507e-03   3.293972e-03   3676440
  2.534707e+00   6.336965e+00   3.065232e-03   3.288762e-03   3711282
  2.545334e+00   6.372969e+00   3.068763e-03   3.291794e-03   3747696
  2.555965e+00   6.402287e+00   3.067225e-03   3.298296e-03   3776188
  2.566601e+00   6.433649e+00   3.074483e-03   3.293883e-03   3815304
  2.577232e+00   6.469834e+00   3.064660e-03   3.303506e-03   3835370
  2.587856e+00   6.499600e+00   3.068926e-03   3.301698e-03   3873424
  2.598487e+00   6.538876e+00   3.067978e-03   3.313604e-03   3903420
  2.609117e+00   6.566330e+00   3.070036e-03   3.307507e-03   3937624
  2.619745e+00   6.598050e+00   3.066011e-03   3.314517e-03   3965658
  2.630375e+00   6.627256e+00   3.069802e-03   3.312353e-03   4002984
  2.641001e+00   6.661226e+00   3.065136e-03   3.322923e-03   4027928
  2.651616e+00   6.685254e+00   3.064941e-03   3.319858e-03   4059844
  2.662241e+00   6.730075e+00   3.069945e-03   3.325348e-03   4100338
  2.672876e+00   6.759745e+00   3.069128e-03   3.323852e-03   4132264
  2.683506e+00   6.785233e+00   3.068474e-03   3.327364e-03   4163216
  2.694131e+00   6.819029e+00   3.066146e-03   3.331262e-03   4193350
  2.704761e+00   6.843688e+00   3.071068e-03   3.330151e-03   4234456
  2.715390e+00   6.877869e+00   3.064079e-03   3.334007e-03   4257264
  2.726012e+00   6.914236e+00   3.069774e-03   3.337837e-03   4297352
  2.736640e+00   6.939875e+00   3.067495e-03   3.338551e-03   4328642
  2.747272e+00   6.965714e+00   3.070663e-03   3.332706e-03   4367948
  2.757895e+00   6.998553e+00   3.061799e-03   3.339563e-03   4388384
  2.768519e+00   7.025140e+00   3.072247e-03   3.335835e-03   4436648
  2.779154e+00   7.064565e+00   3.067997e-03   3.345022e-03   4465658
  2.789787e+00   7.094555e+00   3.069677e-03   3.343987e-03   4502948
  2.800413e+00   7.113841e+00   3.064787e-03   3.340590e-03   4528880
  2.811033e+00   7.153780e+00   3.067181e-03   3.349070e-03   4566290
  2.821663e+00   7.172207e+00   3.070655e-03   3.342473e-03   4606856
  2.832293e+00   7.206993e+00   3.066552e-03   3.349962e-03   4635380
  2.842916e+00   7.240194e+00   3.067131e-03   3.350236e-03   4670384
  2.853543e+00   7.262118e+00   3.069161e-03   3.349206e-03   4709258
  2.864179e+00   7.298462e+00   3.070324e-03   3.351374e-03   4747352
  2.874805e+00   7.327291e+00   3.063655e-03   3.355251e-03   4771664
  2.885427e+00   7.350663e+00   3.068600e-03   3.352025e-03   4813532
  2.896058e+00   7.373817e+00   3.070437e-03   3.347834e-03   4852322
  2.906693e+00   7.408879e+00   3.069013e-03   3.348881e-03   4886480
  2.917320e+00   7.434868e+00   3.066289e-03   3.355886e-03   4917248
  2.927939e+00   7.456410e+00   3.065099e-03   3.352673e-03   4950828
  2.938569e+00   7.497007e+00   3.072788e-03   3.348930e-03   5000170
  2.949204e+00   7.516480e+00   3.066857e-03   3.353279e-03   5026952
  2.959825e+00   7.547483e+00   3.064676e-03   3.355853e-03   5058752
  2.970445e+00   7.572964e+00   3.067741e-03   3.354488e-03   5100722
  2.981076e+00   7.596100e+00   3.068979e-03   3.352823e-03   5140124
  2.991706e+00   7.621091e+00   3.067937e-03   3.351984e-03   5174072
  3.002335e+00   7.649279e+00   3.068928e-03   3.350877e-03   5211608
  3.012962e+00   7.678429e+00   3.067917e-03   3.354807e-03   5247794
  3.023589e+00   7.711204e+00   3.066908e-03   3.355197e-03   5284196
  3.034222e+00   7.732056e+00   3.071657e-03   3.350601e-03   5328800
